Time (s),Temperature (C),Temperature Error (C),DAC Voltage (%)
1515.736,71.039,46.539,-61.05006105
1516.136,70.764,46.264,-61.05006105
1516.336,70.593,46.093,-61.05006105
1516.736,70.318,45.818,-61.05006105
1516.936,70.147,45.647,-61.05006105
1517.135,69.976,45.476,-61.05006105
1517.336,69.839,45.339,-61.05006105
1517.735,69.53,45.03,-61.05006105
1517.935,69.359,44.859,-61.05006105
1518.136,69.187,44.687,-61.05006105
1518.336,69.016,44.516,-61.05006105
1518.736,68.673,44.173,-61.05006105
1518.936,68.536,44.036,-61.05006105
1519.135,68.365,43.865,-61.05006105
1519.336,68.193,43.693,-61.05006105
1519.735,67.85,43.35,-61.05006105
1519.936,67.679,43.179,-61.05006105
1520.136,67.474,42.974,-61.05006105
1520.536,67.131,42.631,-61.05006105
1520.736,66.96,42.46,-61.05006105
1520.935,66.789,42.289,-61.05006105
1521.135,66.617,42.117,-61.05006105
1521.536,66.275,41.775,-61.05006105
1521.735,66.104,41.604,-61.05006105
1521.936,65.898,41.398,-61.05006105
1522.136,65.761,41.261,-61.05006105
1522.536,65.384,40.884,-61.05006105
1522.736,65.213,40.713,-61.05006105
1522.935,65.042,40.542,-61.05006105
1523.336,64.666,40.166,-61.05006105
1523.535,64.529,40.029,-61.05006105
1523.736,64.323,39.823,-61.05006105
1524.135,63.981,39.481,-61.05006105
1524.335,63.776,39.276,-61.05006105
1524.536,63.605,39.105,-61.05006105
1524.736,63.434,38.934,-61.05006105
1524.935,63.262,38.762,-61.05006105
1525.336,62.886,38.386,-61.05006105
1525.535,62.715,38.215,-61.05006105
1525.736,62.544,38.044,-61.05006105
1526.135,62.202,37.702,-61.05006105
1526.336,62.031,37.531,-61.05006105
1526.536,61.826,37.326,-61.05006105
1526.735,61.655,37.155,-61.05006105
1527.136,61.347,36.847,-61.05006105
1527.335,61.142,36.642,-61.05006105
1527.535,60.971,36.471,-61.05006105
1527.736,60.8,36.3,-61.05006105
1528.135,60.458,35.958,-61.05006105
1528.336,60.253,35.753,-61.05006105
1528.536,60.116,35.616,-61.05006105
1528.735,59.911,35.411,-61.05006105
1529.136,59.569,35.069,-61.05006105
1529.335,59.398,34.898,-61.05006105
1529.536,59.227,34.727,-61.05006105
1529.935,58.886,34.386,-61.05006105
1530.136,58.715,34.215,-61.05006105
1530.336,58.544,34.044,-61.05006105
1530.535,58.373,33.873,-61.05006105
1530.936,58.031,33.531,-61.05006105
1531.136,57.861,33.361,-61.05006105
1531.335,57.69,33.19,-61.05006105
1531.536,57.519,33.019,-61.05006105
1531.935,57.178,32.678,-61.05006105
1532.136,56.973,32.473,-61.05006105
1532.336,56.836,32.336,-61.05006105
1532.736,56.495,31.995,-61.05006105
1532.936,56.358,31.858,-61.05006105
1533.135,56.187,31.687,-61.05006105
1533.336,56.017,31.517,-61.05006105
1533.735,55.709,31.209,-61.05006105
1533.935,55.504,31.004,-61.05006105
1534.136,55.368,30.868,-61.05006105
1534.336,55.197,30.697,-61.05006105
1534.736,54.856,30.356,-61.05006105
1534.936,54.685,30.185,-61.05006105
1535.135,54.549,30.049,-61.05006105
1535.336,54.344,29.844,-61.05006105
1535.735,54.037,29.537,-61.05006105
1535.936,53.901,29.401,-61.05006105
1536.136,53.73,29.23,-61.05006105
1536.335,53.559,29.059,-61.05006105
1536.736,53.252,28.752,-61.05006105
1536.935,53.184,28.684,-61.05006105
1537.135,52.911,28.411,-61.05006105
1537.336,52.775,28.275,-61.05006105
1537.735,52.434,27.934,-61.05006105
1537.936,52.297,27.797,-61.05006105
1538.136,52.127,27.627,-61.05006105
1538.335,51.99,27.49,-61.05006105
1538.736,51.683,27.183,-61.05006105
1538.935,51.513,27.013,-61.05006105
1539.136,51.342,26.842,-61.05006105
1539.336,51.172,26.672,-61.05006105
1539.736,50.899,26.399,-61.05006105
1539.936,50.729,26.229,-61.05006105
1540.135,50.593,26.093,-61.05006105
1540.536,50.252,25.752,-61.05006105
1540.736,50.115,25.615,-61.05006105
1540.935,49.945,25.445,-61.05006105
1541.336,49.638,25.138,-61.05006105
1541.535,49.468,24.968,-61.05006105
1541.736,49.332,24.832,-61.05006105
1541.936,49.195,24.695,-61.05006105
1542.336,48.889,24.389,-61.05006105
1542.536,48.718,24.218,-61.05006105
1542.735,48.582,24.082,-61.05006105
1542.936,48.446,23.946,-61.05006105
1543.335,48.139,23.639,-61.05006105
1543.535,47.969,23.469,-61.05006105
1543.736,47.833,23.333,-61.05006105
1543.936,47.697,23.197,-61.05006105
1544.336,47.39,22.89,-61.05006105
1544.536,47.22,22.72,-61.05006105
1544.735,47.084,22.584,-61.05006105
1545.136,46.811,22.311,-61.05006105
1545.335,46.675,22.175,-61.05006105
1545.536,46.505,22.005,-61.05006105
1545.736,46.3,21.8,-61.05006105
1546.136,46.062,21.562,-61.05006105
1546.336,45.926,21.426,-61.05006105
1546.535,45.79,21.29,-61.05006105
1546.735,45.654,21.154,-61.05006105
1547.136,45.382,20.882,-61.05006105
1547.335,45.211,20.711,-61.05006105
1547.536,45.075,20.575,-61.05006105
1547.736,44.939,20.439,-61.05006105
1548.136,44.667,20.167,-61.05006105
1548.336,44.531,20.031,-61.05006105
1548.535,44.395,19.895,-61.05006105
1548.936,44.123,19.623,-61.05006105
1549.135,43.952,19.452,-61.05006105
1549.336,43.816,19.316,-61.05006105
1549.536,43.68,19.18,-61.05006105
1549.935,43.408,18.908,-61.05006105
1550.136,43.272,18.772,-61.05006105
1550.336,43.136,18.636,-61.05006105
1550.736,42.864,18.364,-61.05006105
1550.936,42.728,18.228,-61.05006105
1551.135,42.558,18.058,-61.05006105
1551.336,42.456,17.956,-61.05006105
1551.735,42.184,17.684,-61.05006105
1551.936,42.048,17.548,-61.05006105
1552.136,41.912,17.412,-61.05006105
1552.335,41.81,17.31,-61.05006105
1552.736,41.504,17.004,-61.05006105
1552.935,41.368,16.868,-61.05006105
1553.135,41.266,16.766,-61.05006105
1553.336,41.13,16.63,-61.05006105
1553.735,40.858,16.358,-61.05006105
1553.936,40.722,16.222,-61.05006105
1554.136,40.586,16.086,-61.05006105
1554.335,40.45,15.95,-61.05006105
1554.736,40.213,15.713,-61.05006105
1554.935,40.077,15.577,-61.05006105
1555.136,39.941,15.441,-61.05006105
1555.535,39.703,15.203,-61.05006105
1555.736,39.567,15.067,-61.05006105
1555.936,39.431,14.931,-61.05006105
1556.335,39.193,14.693,-61.05006105
1556.536,39.057,14.557,-61.05006105
1556.736,38.955,14.455,-61.05006105
1556.935,38.786,14.286,-61.05006105
1557.336,38.548,14.048,-61.05006105
1557.535,38.412,13.912,-61.05006105
1557.736,38.31,13.81,-61.05006105
1557.936,38.208,13.708,-61.05006105
1558.336,37.937,13.437,-61.05006105
1558.536,37.835,13.335,-61.05006105
1558.735,37.733,13.233,-61.05006105
1559.136,37.461,12.961,-61.05006105
1559.335,37.36,12.86,-61.05006105
1559.535,37.224,12.724,-61.05006105
1559.736,37.088,12.588,-61.05006105
1560.135,36.85,12.35,-61.05006105
1560.336,36.748,12.248,-61.05006105
1560.536,36.613,12.113,-61.05006105
1560.936,36.375,11.875,-61.05006105
1561.136,36.239,11.739,-61.05006105
1561.335,36.137,11.637,-61.05006105
1561.536,36.036,11.536,-61.05006105
1561.935,35.798,11.298,-61.05006105
1562.136,35.696,11.196,-61.05006105
1562.336,35.561,11.061,-61.05006105
1562.535,35.459,10.959,-61.05006105
1562.936,35.221,10.721,-61.05006105
1563.136,35.085,10.585,-61.05006105
1563.335,35.018,10.518,-61.05006105
1563.536,34.882,10.382,-61.05006105
1563.935,34.644,10.144,-61.05006105
1564.136,34.543,10.043,-61.05006105
1564.336,34.407,9.907,-61.05006105
1564.535,34.305,9.805,-61.05006105
1564.936,34.102,9.602,-61.05006105
1565.135,34,9.5,-61.05006105
1565.336,33.864,9.364,-61.05006105
1565.735,33.661,9.161,-61.05006105
1565.935,33.525,9.025,-61.05006105
1566.136,33.423,8.923,-61.05006105
1566.535,33.22,8.72,-61.05006105
1566.736,33.118,8.618,-61.05006105
1566.936,32.983,8.483,-61.05006105
1567.135,32.915,8.415,-61.05006105
1567.536,32.678,8.178,-61.05006105
1567.735,32.542,8.042,-61.05006105
1567.936,32.474,7.974,-61.05006105
1568.136,32.338,7.838,-61.05006105
1568.536,32.169,7.669,-61.05006105
1568.736,32.033,7.533,-61.05006105
1568.935,31.932,7.432,-61.05006105
1569.336,31.728,7.228,-61.05006105
1569.536,31.593,7.093,-61.05006105
1569.735,31.491,6.991,-61.05006105
1570.136,31.288,6.788,-61.05006105
1570.335,31.22,6.72,-61.05006105
1570.536,31.084,6.584,-61.05006105
1570.736,30.983,6.483,-61.05006105
1571.136,30.779,6.279,-61.05006105
1571.336,30.712,6.212,-61.05006105
1571.535,30.576,6.076,-61.05006105
1571.936,30.407,5.907,-61.05006105
1572.135,30.271,5.771,-61.05006105
1572.335,30.17,5.67,-61.05006105
1572.536,30.068,5.568,-61.05006105
1572.935,29.865,5.365,-61.05006105
1573.136,29.797,5.297,-61.05006105
1573.336,29.695,5.195,-61.05006105
1573.736,29.492,4.992,-61.05006105
1573.936,29.357,4.857,-61.05006105
1574.135,29.255,4.755,-61.05006105
1574.536,29.086,4.586,-61.05006105
1574.735,28.984,4.484,-61.05006105
1574.936,28.916,4.416,-61.05006105
1575.136,28.781,4.281,-61.05006105
1575.535,28.612,4.112,-61.05006105
1575.736,28.51,4.01,-61.05006105
1575.936,28.408,3.908,-61.05006105
1576.135,28.307,3.807,-61.05006105
1576.536,28.104,3.604,-61.05006105
1576.735,28.036,3.536,-61.05006105
1576.936,27.934,3.434,-61.05006105
1577.136,27.867,3.367,-61.05006105
1577.536,27.63,3.13,-61.05006105
1577.736,27.562,3.062,-61.05006105
1577.935,27.46,2.96,-61.05006105
1578.136,27.359,2.859,-61.05006105
1578.535,27.19,2.69,-61.05006105
1578.735,27.088,2.588,-61.05006105
1578.936,27.02,2.52,-61.05006105
1579.335,26.817,2.317,-61.05006105
1579.536,26.716,2.216,-61.05006105
1579.736,26.648,2.148,-61.05006105
1579.935,26.547,2.047,-61.05006105
1580.336,26.344,1.844,-61.05006105
1580.535,26.276,1.776,-61.05006105
1580.736,26.174,1.674,-61.05006105
1580.936,26.073,1.573,-61.05006105
1581.336,25.904,1.404,-61.05006105
1581.536,25.836,1.336,-61.05006105
1581.735,25.735,1.235,-61.05006105
1581.935,25.633,1.133,-61.05006105
1582.336,25.464,0.964,-61.05006105
1582.535,25.362,0.862,-61.05006105
1582.736,25.295,0.795,-61.05006105
1582.936,25.193,0.693,-61.05006105
1583.336,25.024,0.524,-61.05006105
1583.536,24.923,0.423,-61.05006105
1583.735,24.855,0.355,-61.05006105
1584.136,24.686,0.186,-61.05006105
1584.335,24.618,0.118,-61.05006105
1584.536,24.517,0.017,-61.05006105
1584.935,24.348,-0.152,-61.05006105
1585.135,24.246,-0.254,-61.05006105
1585.336,24.179,-0.321,-61.05006105
1585.536,24.077,-0.423,-61.05006105
1585.936,23.908,-0.592,-61.05006105
1586.136,23.84,-0.66,-61.05006105
1586.335,23.773,-0.727,-61.05006105
1586.536,23.705,-0.795,-61.05006105
1586.736,23.604,-0.896,-61.05006105
1587.136,23.435,-1.065,-61.05006105
1587.336,23.333,-1.167,-61.05006105
1587.535,23.266,-1.234,-61.05006105
1587.736,23.198,-1.302,-61.05006105
1588.135,23.029,-1.471,-61.05006105
1588.335,22.961,-1.539,-61.05006105
1588.536,22.86,-1.64,-61.05006105
1588.736,22.792,-1.708,-61.05006105
1589.136,22.589,-1.911,-61.05006105
1589.336,22.556,-1.944,-61.05006105
1589.535,22.42,-2.08,-61.05006105
1589.736,22.353,-2.147,-61.05006105
1590.135,22.217,-2.283,-61.05006105
1590.336,22.15,-2.35,-61.05006105
1590.536,22.049,-2.451,-61.05006105
1590.936,21.913,-2.587,-61.05006105
1591.136,21.812,-2.688,-61.05006105
1591.335,21.744,-2.756,-61.05006105
1591.736,21.576,-2.924,-61.05006105
1591.936,21.508,-2.992,-61.05006105
1592.135,21.44,-3.06,-61.05006105
1592.536,21.271,-3.229,-61.05006105
1592.735,21.204,-3.296,-61.05006105
1592.936,21.103,-3.397,-61.05006105
1593.136,21.035,-3.465,-61.05006105
1593.536,20.9,-3.6,-61.05006105
1593.736,20.798,-3.702,-61.05006105
1593.935,20.731,-3.769,-61.05006105
1594.136,20.663,-3.837,-61.05006105
1594.535,20.494,-4.006,-61.05006105
1594.735,20.427,-4.073,-61.05006105
1594.936,20.359,-4.141,-61.05006105
1595.136,20.292,-4.208,-61.05006105
1595.536,20.123,-4.377,-61.05006105
1595.736,20.055,-4.445,-61.05006105
1595.935,19.988,-4.512,-61.05006105
1596.336,19.853,-4.647,-61.05006105
1596.535,19.785,-4.715,-61.05006105
1596.736,19.684,-4.816,-61.05006105
1597.135,19.549,-4.951,-61.05006105
1597.336,19.481,-5.019,-61.05006105
1597.536,19.414,-5.086,-61.05006105
1597.735,19.312,-5.188,-61.05006105
1598.136,19.177,-5.323,-61.05006105
1598.336,19.11,-5.39,-61.05006105
1598.535,19.042,-5.458,-61.05006105
1598.736,18.975,-5.525,-61.05006105
1599.135,18.84,-5.66,-61.05006105
1599.336,18.738,-5.762,-61.05006105
1599.536,18.671,-5.829,-61.05006105
1599.735,18.603,-5.897,-61.05006105
1600.136,18.468,-6.032,-61.05006105
1600.335,18.434,-6.066,-61.05006105
1600.536,18.333,-6.167,-61.05006105
1600.935,18.198,-6.302,-61.05006105
1601.135,18.131,-6.369,-61.05006105
1601.336,18.063,-6.437,-61.05006105
1601.536,17.995,-6.505,-61.05006105
1601.936,17.86,-6.64,-61.05006105
1602.136,17.793,-6.707,-61.05006105
1602.335,17.726,-6.774,-61.05006105
1602.736,17.557,-6.943,-61.05006105
1602.935,17.523,-6.977,-61.05006105
1603.136,17.455,-7.045,-61.05006105
1603.535,17.287,-7.213,-61.05006105
1603.736,17.253,-7.247,-61.05006105
1603.936,17.186,-7.314,-61.05006105
1604.135,17.118,-7.382,-61.05006105
1604.536,16.983,-7.517,-61.05006105
1604.736,16.916,-7.584,-61.05006105
1604.935,16.848,-7.652,-61.05006105
1605.136,16.781,-7.719,-61.05006105
1605.535,16.645,-7.855,-61.05006105
1605.736,16.612,-7.888,-61.05006105
1605.936,16.511,-7.989,-61.05006105
1606.135,16.443,-8.057,-61.05006105
1606.536,16.342,-8.158,-61.05006105
1606.735,16.274,-8.226,-61.05006105
1606.936,16.207,-8.293,-61.05006105
1607.136,16.139,-8.361,-61.05006105
1607.535,16.005,-8.495,-61.05006105
1607.736,15.937,-8.563,-61.05006105
1607.936,15.903,-8.597,-61.05006105
1608.135,15.836,-8.664,-61.05006105
1608.536,15.667,-8.833,-61.05006105
1608.735,15.634,-8.866,-61.05006105
1608.936,15.566,-8.934,-61.05006105
1609.335,15.431,-9.069,-61.05006105
1609.536,15.364,-9.136,-61.05006105
1609.736,15.33,-9.17,-61.05006105
1609.935,15.262,-9.238,-61.05006105
1610.336,15.161,-9.339,-61.05006105
1610.535,15.094,-9.406,-61.05006105
1610.735,15.026,-9.474,-61.05006105
1610.936,14.959,-9.541,-61.05006105
1611.335,14.824,-9.676,-61.05006105
1611.536,14.757,-9.743,-61.05006105
1611.736,14.723,-9.777,-61.05006105
1612.136,14.622,-9.878,-61.05006105
1612.336,14.554,-9.946,-61.05006105
1612.535,14.487,-10.013,-61.05006105
1612.736,14.419,-10.081,-61.05006105
1613.135,14.318,-10.182,-61.05006105
1613.336,14.251,-10.249,-61.05006105
1613.536,14.183,-10.317,-61.05006105
1613.735,14.149,-10.351,-61.05006105
1614.136,14.015,-10.485,-61.05006105
1614.336,13.981,-10.519,-61.05006105
1614.535,13.914,-10.586,-61.05006105
1614.936,13.779,-10.721,-61.05006105
1615.135,13.745,-10.755,-61.05006105
1615.336,13.678,-10.822,-61.05006105
1615.536,13.644,-10.856,-61.05006105
1615.936,13.509,-10.991,-61.05006105
1616.136,13.441,-11.059,-61.05006105
1616.335,13.408,-11.092,-61.05006105
1616.536,13.34,-11.16,-61.05006105
1616.935,13.239,-11.261,-61.05006105
1617.135,13.172,-11.328,-61.05006105
1617.336,13.104,-11.396,-61.05006105
1617.536,13.071,-11.429,-61.05006105
1617.936,12.936,-11.564,-61.05006105
1618.136,12.902,-11.598,-61.05006105
1618.335,12.835,-11.665,-61.05006105
1618.536,12.801,-11.699,-61.05006105
1618.736,12.734,-11.766,-61.05006105
1619.136,12.599,-11.901,-61.05006105
1619.336,12.565,-11.935,-61.05006105
1619.535,12.498,-12.002,-61.05006105
1619.936,12.397,-12.103,-61.05006105
1620.135,12.363,-12.137,-61.05006105
1620.335,12.296,-12.204,-61.05006105
1620.736,12.194,-12.306,-61.05006105
1620.935,12.161,-12.339,-61.05006105
1621.136,12.093,-12.407,-61.05006105
1621.336,12.06,-12.44,-61.05006105
1621.736,11.925,-12.575,-61.05006105
1621.936,11.858,-12.642,-61.05006105
1622.135,11.824,-12.676,-61.05006105
1622.536,11.723,-12.777,-61.05006105
1622.735,11.689,-12.811,-61.05006105
1622.936,11.622,-12.878,-61.05006105
1623.136,11.554,-12.946,-61.05006105
1623.535,11.453,-13.047,-61.05006105
1623.736,11.42,-13.08,-61.05006105
1623.936,11.352,-13.148,-61.05006105
1624.135,11.319,-13.181,-61.05006105
1624.536,11.217,-13.283,-61.05006105
1624.735,11.184,-13.316,-61.05006105
1624.936,11.083,-13.417,-61.05006105
1625.335,11.015,-13.485,-61.05006105
1625.536,10.982,-13.518,-61.05006105
1625.736,10.914,-13.586,-61.05006105
1625.935,10.881,-13.619,-61.05006105
1626.336,10.78,-13.72,-61.05006105
1626.535,10.712,-13.788,-61.05006105
1626.735,10.645,-13.855,-61.05006105
1626.936,10.611,-13.889,-61.05006105
1627.335,10.51,-13.99,-61.05006105
1627.536,10.476,-14.024,-61.05006105
1627.736,10.409,-14.091,-61.05006105
1628.136,10.342,-14.158,-61.05006105
1628.336,10.274,-14.226,-61.05006105
1628.535,10.241,-14.259,-61.05006105
1628.736,10.207,-14.293,-61.05006105
1628.936,10.14,-14.36,-61.05006105
1629.336,10.039,-14.461,-61.05006105
1629.536,10.005,-14.495,-61.05006105
1629.735,9.971,-14.529,-61.05006105
1630.136,9.87,-14.63,-61.05006105
1630.336,9.803,-14.697,-61.05006105
1630.535,9.769,-14.731,-61.05006105
1630.936,9.668,-14.832,-61.05006105
1631.135,9.635,-14.865,-61.05006105
1631.336,9.567,-14.933,-61.05006105
1631.735,9.5,-15,-61.05006105
1631.936,9.433,-15.067,-61.05006105
1632.136,9.399,-15.101,-61.05006105
1632.335,9.365,-15.135,-61.05006105
1632.736,9.264,-15.236,-61.05006105
1632.935,9.23,-15.27,-61.05006105
1633.135,9.163,-15.337,-61.05006105
1633.336,9.129,-15.371,-61.05006105
1633.735,9.062,-15.438,-61.05006105
1633.936,8.995,-15.505,-61.05006105
1634.136,8.961,-15.539,-61.05006105
1634.335,8.928,-15.572,-61.05006105
1634.736,8.826,-15.674,-61.05006105
1634.935,8.793,-15.707,-61.05006105
1635.136,8.759,-15.741,-61.05006105
1635.535,8.624,-15.876,-61.05006105
1635.736,8.624,-15.876,-61.05006105
1635.936,8.557,-15.943,-61.05006105
1636.135,8.523,-15.977,-61.05006105
1636.536,8.422,-16.078,-61.05006105
1636.736,8.422,-16.078,-61.05006105
1636.935,8.355,-16.145,-61.05006105
1637.136,8.321,-16.179,-61.05006105
1637.535,8.254,-16.246,-61.05006105
1637.736,8.187,-16.313,-61.05006105
1637.936,8.153,-16.347,-61.05006105
1638.336,8.052,-16.448,-61.05006105
1638.536,8.052,-16.448,-61.05006105
1638.735,7.985,-16.515,-61.05006105
1638.936,7.918,-16.582,-61.05006105
1639.335,7.85,-16.65,-61.05006105
1639.535,7.817,-16.683,-61.05006105
1639.736,7.783,-16.717,-61.05006105
1639.936,7.749,-16.751,-61.05006105
1640.336,7.682,-16.818,-61.05006105
1640.536,7.615,-16.885,-61.05006105
1640.735,7.581,-16.919,-61.05006105
1640.936,7.547,-16.953,-61.05006105
1641.335,7.447,-17.053,-61.05006105
1641.536,7.447,-17.053,-61.05006105
1641.736,7.379,-17.121,-61.05006105
1641.935,7.346,-17.154,-61.05006105
1642.336,7.278,-17.222,-61.05006105
1642.535,7.211,-17.289,-61.05006105
1642.735,7.177,-17.323,-61.05006105
1643.136,7.11,-17.39,-61.05006105
1643.335,7.076,-17.424,-61.05006105
1643.536,7.043,-17.457,-61.05006105
1643.736,7.009,-17.491,-61.05006105
1644.136,6.908,-17.592,-61.05006105
1644.336,6.908,-17.592,-61.05006105
1644.535,6.841,-17.659,-61.05006105
1644.936,6.774,-17.726,-61.05006105
1645.135,6.774,-17.726,-61.05006105
1645.336,6.706,-17.794,-61.05006105
1645.536,6.673,-17.827,-61.05006105
1645.935,6.605,-17.895,-61.05006105
1646.136,6.572,-17.928,-61.05006105
1646.336,6.538,-17.962,-61.05006105
1646.535,6.504,-17.996,-61.05006105
1646.936,6.437,-18.063,-61.05006105
1647.135,6.404,-18.096,-61.05006105
1647.336,6.336,-18.164,-61.05006105
1647.536,6.336,-18.164,-61.05006105
1647.936,6.235,-18.265,-61.05006105
1648.136,6.202,-18.298,-61.05006105
1648.335,6.168,-18.332,-61.05006105
1648.536,6.134,-18.366,-61.05006105
1648.935,6.067,-18.433,-61.05006105
1649.135,6.033,-18.467,-61.05006105
1649.336,6,-18.5,-61.05006105
1649.735,5.899,-18.601,-61.05006105
1649.936,5.899,-18.601,-61.05006105
1650.136,5.865,-18.635,-61.05006105
1650.335,5.832,-18.668,-61.05006105
1650.736,5.731,-18.769,-61.05006105
1650.935,5.697,-18.803,-61.05006105
1651.136,5.697,-18.803,-61.05006105
1651.535,5.596,-18.904,-61.05006105
1651.736,5.596,-18.904,-61.05006105
1651.936,5.529,-18.971,-61.05006105
1652.335,5.462,-19.038,-61.05006105
1652.536,5.428,-19.072,-61.05006105
1652.736,5.428,-19.072,-61.05006105
1652.935,5.395,-19.105,-61.05006105
1653.336,5.294,-19.206,-61.05006105
1653.535,5.26,-19.24,-61.05006105
