Time (s),Temperature (C),Temperature Error (C),DAC Voltage (%)
891.136,0.186,-24.314,61.05006105
891.536,0.387,-24.113,61.05006105
891.736,0.421,-24.079,61.05006105
891.935,0.555,-23.945,61.05006105
892.336,0.757,-23.743,61.05006105
892.535,0.891,-23.609,61.05006105
892.736,1.025,-23.475,61.05006105
892.936,1.16,-23.34,61.05006105
893.135,1.294,-23.206,61.05006105
893.536,1.563,-22.937,61.05006105
893.735,1.731,-22.769,61.05006105
893.935,1.865,-22.635,61.05006105
894.336,2.201,-22.299,61.05006105
894.535,2.336,-22.164,61.05006105
894.736,2.503,-21.997,61.05006105
894.936,2.672,-21.828,61.05006105
895.336,3.008,-21.492,61.05006105
895.536,3.176,-21.324,61.05006105
895.735,3.344,-21.156,61.05006105
896.136,3.68,-20.82,61.05006105
896.335,3.848,-20.652,61.05006105
896.536,4.016,-20.484,61.05006105
896.935,4.386,-20.114,61.05006105
897.135,4.554,-19.946,61.05006105
897.336,4.756,-19.744,61.05006105
897.536,4.924,-19.576,61.05006105
897.936,5.294,-19.206,61.05006105
898.136,5.462,-19.038,61.05006105
898.335,5.63,-18.87,61.05006105
898.536,5.832,-18.668,61.05006105
898.935,6.202,-18.298,61.05006105
899.136,6.37,-18.13,61.05006105
899.336,6.572,-17.928,61.05006105
899.535,6.74,-17.76,61.05006105
899.936,7.11,-17.39,61.05006105
900.135,7.278,-17.222,61.05006105
900.335,7.447,-17.053,61.05006105
900.736,7.817,-16.683,61.05006105
900.935,7.985,-16.515,61.05006105
901.136,8.187,-16.313,61.05006105
901.336,8.389,-16.111,61.05006105
901.736,8.725,-15.775,61.05006105
901.936,8.928,-15.572,61.05006105
902.135,9.096,-15.404,61.05006105
902.336,9.298,-15.202,61.05006105
902.735,9.635,-14.865,61.05006105
902.936,9.837,-14.663,61.05006105
903.136,10.005,-14.495,61.05006105
903.335,10.173,-14.327,61.05006105
903.736,10.544,-13.956,61.05006105
903.936,10.746,-13.754,61.05006105
904.135,10.914,-13.586,61.05006105
904.536,11.251,-13.249,61.05006105
904.735,11.453,-13.047,61.05006105
904.936,11.622,-12.878,61.05006105
905.136,11.79,-12.71,61.05006105
905.536,12.161,-12.339,61.05006105
905.736,12.329,-12.171,61.05006105
905.935,12.532,-11.968,61.05006105
906.136,12.7,-11.8,61.05006105
906.535,13.037,-11.463,61.05006105
906.735,13.206,-11.294,61.05006105
906.936,13.408,-11.092,61.05006105
907.136,13.576,-10.924,61.05006105
907.536,13.914,-10.586,61.05006105
907.736,14.082,-10.418,61.05006105
907.935,14.251,-10.249,61.05006105
908.336,14.588,-9.912,61.05006105
908.535,14.757,-9.743,61.05006105
908.736,14.959,-9.541,61.05006105
908.936,15.094,-9.406,61.05006105
909.336,15.465,-9.035,61.05006105
909.536,15.634,-8.866,61.05006105
909.735,15.802,-8.698,61.05006105
910.136,16.139,-8.361,61.05006105
910.336,16.274,-8.226,61.05006105
910.535,16.443,-8.057,61.05006105
910.736,16.612,-7.888,61.05006105
911.135,16.949,-7.551,61.05006105
911.336,17.118,-7.382,61.05006105
911.536,17.287,-7.213,61.05006105
911.735,17.455,-7.045,61.05006105
912.136,17.793,-6.707,61.05006105
912.335,17.928,-6.572,61.05006105
912.536,18.131,-6.369,61.05006105
912.736,18.265,-6.235,61.05006105
913.135,18.603,-5.897,61.05006105
913.336,18.772,-5.728,61.05006105
913.536,18.941,-5.559,61.05006105
913.735,19.11,-5.39,61.05006105
914.136,19.414,-5.086,61.05006105
914.335,19.549,-4.951,61.05006105
914.536,19.751,-4.749,61.05006105
914.935,20.055,-4.445,61.05006105
915.136,20.19,-4.31,61.05006105
915.336,20.359,-4.141,61.05006105
915.535,20.528,-3.972,61.05006105
915.936,20.832,-3.668,61.05006105
916.135,20.967,-3.533,61.05006105
916.335,21.17,-3.33,61.05006105
916.736,21.474,-3.026,61.05006105
916.935,21.609,-2.891,61.05006105
917.136,21.778,-2.722,61.05006105
917.535,22.082,-2.418,61.05006105
917.736,22.217,-2.283,61.05006105
917.936,22.387,-2.113,61.05006105
918.135,22.522,-1.978,61.05006105
918.536,22.86,-1.64,61.05006105
918.735,22.995,-1.505,61.05006105
918.936,23.164,-1.336,61.05006105
919.136,23.299,-1.201,61.05006105
919.535,23.604,-0.896,61.05006105
919.736,23.739,-0.761,61.05006105
919.936,23.908,-0.592,61.05006105
920.135,24.043,-0.457,61.05006105
920.536,24.348,-0.152,61.05006105
920.735,24.483,-0.017,61.05006105
920.936,24.618,0.118,61.05006105
921.136,24.787,0.287,61.05006105
921.536,25.092,0.592,61.05006105
921.736,25.227,0.727,61.05006105
921.935,25.396,0.896,61.05006105
922.136,25.531,1.031,61.05006105
922.535,25.836,1.336,61.05006105
922.735,25.938,1.438,61.05006105
922.936,26.107,1.607,61.05006105
923.335,26.377,1.877,61.05006105
923.536,26.547,2.047,61.05006105
923.736,26.682,2.182,61.05006105
924.136,26.953,2.453,61.05006105
924.336,27.088,2.588,61.05006105
924.535,27.257,2.757,61.05006105
924.736,27.359,2.859,61.05006105
925.135,27.664,3.164,61.05006105
925.336,27.799,3.299,61.05006105
925.536,27.934,3.434,61.05006105
925.935,28.205,3.705,61.05006105
926.136,28.341,3.841,61.05006105
926.336,28.476,3.976,61.05006105
926.535,28.612,4.112,61.05006105
926.936,28.882,4.382,61.05006105
927.135,29.052,4.552,61.05006105
927.336,29.153,4.653,61.05006105
927.536,29.289,4.789,61.05006105
927.936,29.526,5.026,61.05006105
928.136,29.695,5.195,61.05006105
928.335,29.797,5.297,61.05006105
928.536,29.932,5.432,61.05006105
928.935,30.203,5.703,61.05006105
929.135,30.339,5.839,61.05006105
929.336,30.474,5.974,61.05006105
929.735,30.746,6.246,61.05006105
929.936,30.847,6.347,61.05006105
930.136,30.983,6.483,61.05006105
930.335,31.118,6.618,61.05006105
930.736,31.356,6.856,61.05006105
930.935,31.491,6.991,61.05006105
931.136,31.627,7.127,61.05006105
931.336,31.762,7.262,61.05006105
931.736,31.999,7.499,61.05006105
931.936,32.101,7.601,61.05006105
932.135,32.237,7.737,61.05006105
932.335,32.372,7.872,61.05006105
932.736,32.61,8.11,61.05006105
932.935,32.711,8.211,61.05006105
933.136,32.881,8.381,61.05006105
933.535,33.084,8.584,61.05006105
933.736,33.22,8.72,61.05006105
933.936,33.356,8.856,61.05006105
934.135,33.491,8.991,61.05006105
934.536,33.695,9.195,61.05006105
934.735,33.83,9.33,61.05006105
934.936,33.932,9.432,61.05006105
935.335,34.17,9.67,61.05006105
935.535,34.305,9.805,61.05006105
935.736,34.407,9.907,61.05006105
935.936,34.543,10.043,61.05006105
936.336,34.746,10.246,61.05006105
936.536,34.882,10.382,61.05006105
936.735,35.018,10.518,61.05006105
936.936,35.119,10.619,61.05006105
937.335,35.323,10.823,61.05006105
937.536,35.459,10.959,61.05006105
937.736,35.561,11.061,61.05006105
938.136,35.798,11.298,61.05006105
938.336,35.9,11.4,61.05006105
938.535,36.036,11.536,61.05006105
938.735,36.137,11.637,61.05006105
939.136,36.375,11.875,61.05006105
939.335,36.477,11.977,61.05006105
939.536,36.613,12.113,61.05006105
939.935,36.816,12.316,61.05006105
940.136,36.918,12.418,61.05006105
940.336,37.02,12.52,61.05006105
940.535,37.156,12.656,61.05006105
940.936,37.36,12.86,61.05006105
941.135,37.461,12.961,61.05006105
941.336,37.563,13.063,61.05006105
941.536,37.665,13.165,61.05006105
941.935,37.903,13.403,61.05006105
942.136,38.005,13.505,61.05006105
942.336,38.14,13.64,61.05006105
942.736,38.31,13.81,61.05006105
942.936,38.412,13.912,61.05006105
943.135,38.514,14.014,61.05006105
943.336,38.65,14.15,61.05006105
943.735,38.854,14.354,61.05006105
943.936,38.955,14.455,61.05006105
944.136,39.057,14.557,61.05006105
944.335,39.193,14.693,61.05006105
944.736,39.363,14.863,61.05006105
944.935,39.465,14.965,61.05006105
945.135,39.567,15.067,61.05006105
945.336,39.669,15.169,61.05006105
945.735,39.873,15.373,61.05006105
945.936,39.975,15.475,61.05006105
946.136,40.077,15.577,61.05006105
946.335,40.179,15.679,61.05006105
946.736,40.383,15.883,61.05006105
946.935,40.484,15.984,61.05006105
947.136,40.552,16.052,61.05006105
947.336,40.654,16.154,61.05006105
947.736,40.858,16.358,61.05006105
947.936,40.994,16.494,61.05006105
948.135,41.062,16.562,61.05006105
948.335,41.13,16.63,61.05006105
948.736,41.334,16.834,61.05006105
948.935,41.436,16.936,61.05006105
949.136,41.538,17.038,61.05006105
949.336,41.64,17.14,61.05006105
949.736,41.844,17.344,61.05006105
949.936,41.946,17.446,61.05006105
950.135,42.014,17.514,61.05006105
950.336,42.116,17.616,61.05006105
950.735,42.286,17.786,61.05006105
950.936,42.388,17.888,61.05006105
951.136,42.49,17.99,61.05006105
951.335,42.592,18.092,61.05006105
951.736,42.762,18.262,61.05006105
951.936,42.864,18.364,61.05006105
952.135,42.932,18.432,61.05006105
952.336,43.034,18.534,61.05006105
952.735,43.204,18.704,61.05006105
952.936,43.306,18.806,61.05006105
953.136,43.408,18.908,61.05006105
953.536,43.578,19.078,61.05006105
953.736,43.68,19.18,61.05006105
953.935,43.748,19.248,61.05006105
954.136,43.85,19.35,61.05006105
954.535,44.021,19.521,61.05006105
954.736,44.088,19.588,61.05006105
954.936,44.19,19.69,61.05006105
955.136,44.259,19.759,61.05006105
955.536,44.463,19.963,61.05006105
955.736,44.531,20.031,61.05006105
955.935,44.599,20.099,61.05006105
956.136,44.701,20.201,61.05006105
956.535,44.871,20.371,61.05006105
956.736,44.939,20.439,61.05006105
956.936,45.041,20.541,61.05006105
957.135,45.143,20.643,61.05006105
957.536,45.313,20.813,61.05006105
957.735,45.382,20.882,61.05006105
957.935,45.45,20.95,61.05006105
958.136,45.552,21.052,61.05006105
958.535,45.722,21.222,61.05006105
958.736,45.79,21.29,61.05006105
958.936,45.892,21.392,61.05006105
959.135,45.96,21.46,61.05006105
959.536,46.13,21.63,61.05006105
959.735,46.198,21.698,61.05006105
959.936,46.3,21.8,61.05006105
960.136,46.369,21.869,61.05006105
960.536,46.505,22.005,61.05006105
960.736,46.607,22.107,61.05006105
960.935,46.709,22.209,61.05006105
961.336,46.845,22.345,61.05006105
961.536,46.947,22.447,61.05006105
961.735,46.981,22.481,61.05006105
961.936,47.084,22.584,61.05006105
962.335,47.22,22.72,61.05006105
962.536,47.322,22.822,61.05006105
962.736,47.39,22.89,61.05006105
962.935,47.458,22.958,61.05006105
963.336,47.662,23.162,61.05006105
963.535,47.73,23.23,61.05006105
963.736,47.799,23.299,61.05006105
963.936,47.867,23.367,61.05006105
964.335,48.003,23.503,61.05006105
964.536,48.071,23.571,61.05006105
964.736,48.173,23.673,61.05006105
965.136,48.31,23.81,61.05006105
965.336,48.378,23.878,61.05006105
965.535,48.446,23.946,61.05006105
965.936,48.616,24.116,61.05006105
966.135,48.718,24.218,61.05006105
966.336,48.753,24.253,61.05006105
966.536,48.855,24.355,61.05006105
966.936,48.957,24.457,61.05006105
967.136,49.059,24.559,61.05006105
967.335,49.127,24.627,61.05006105
967.736,49.263,24.763,61.05006105
967.936,49.332,24.832,61.05006105
968.135,49.4,24.9,61.05006105
968.336,49.468,24.968,61.05006105
968.735,49.638,25.138,61.05006105
968.936,49.706,25.206,61.05006105
969.136,49.775,25.275,61.05006105
969.536,49.911,25.411,61.05006105
969.736,49.979,25.479,61.05006105
969.935,50.047,25.547,61.05006105
970.136,50.15,25.65,61.05006105
970.535,50.252,25.752,61.05006105
970.735,50.32,25.82,61.05006105
970.936,50.388,25.888,61.05006105
971.335,50.524,26.024,61.05006105
971.536,50.593,26.093,61.05006105
971.736,50.661,26.161,61.05006105
971.935,50.729,26.229,61.05006105
972.336,50.899,26.399,61.05006105
972.535,50.933,26.433,61.05006105
972.736,51.002,26.502,61.05006105
972.936,51.07,26.57,61.05006105
973.336,51.206,26.706,61.05006105
973.536,51.274,26.774,61.05006105
973.735,51.342,26.842,61.05006105
973.935,51.377,26.877,61.05006105
974.336,51.513,27.013,61.05006105
974.535,51.581,27.081,61.05006105
974.736,51.649,27.149,61.05006105
974.936,51.718,27.218,61.05006105
975.336,51.854,27.354,61.05006105
975.536,51.888,27.388,61.05006105
975.735,51.956,27.456,61.05006105
975.936,52.024,27.524,61.05006105
976.335,52.161,27.661,61.05006105
976.536,52.195,27.695,61.05006105
976.736,52.263,27.763,61.05006105
976.935,52.331,27.831,61.05006105
977.336,52.434,27.934,61.05006105
977.536,52.502,28.002,61.05006105
977.735,52.536,28.036,61.05006105
977.936,52.638,28.138,61.05006105
978.335,52.741,28.241,61.05006105
978.536,52.809,28.309,61.05006105
978.736,52.843,28.343,61.05006105
978.935,52.911,28.411,61.05006105
979.336,53.048,28.548,61.05006105
979.535,53.082,28.582,61.05006105
979.736,53.15,28.65,61.05006105
980.135,53.252,28.752,61.05006105
980.335,53.286,28.786,61.05006105
980.536,53.355,28.855,61.05006105
980.736,53.389,28.889,61.05006105
981.136,53.525,29.025,61.05006105
981.336,53.559,29.059,61.05006105
981.535,53.627,29.127,61.05006105
981.936,53.73,29.23,61.05006105
982.135,53.798,29.298,61.05006105
982.336,53.866,29.366,61.05006105
982.536,53.901,29.401,61.05006105
982.936,54.003,29.503,61.05006105
983.136,54.071,29.571,61.05006105
983.335,54.105,29.605,61.05006105
983.736,54.208,29.708,61.05006105
983.936,54.242,29.742,61.05006105
984.135,54.344,29.844,61.05006105
984.336,54.378,29.878,61.05006105
984.735,54.481,29.981,61.05006105
984.936,54.515,30.015,61.05006105
985.136,54.549,30.049,61.05006105
985.536,54.685,30.185,61.05006105
985.736,54.719,30.219,61.05006105
985.935,54.788,30.288,61.05006105
986.136,54.822,30.322,61.05006105
986.535,54.924,30.424,61.05006105
986.735,54.958,30.458,61.05006105
986.936,55.027,30.527,61.05006105
987.335,55.129,30.629,61.05006105
987.536,55.163,30.663,61.05006105
987.736,55.197,30.697,61.05006105
987.935,55.231,30.731,61.05006105
988.336,55.334,30.834,61.05006105
988.535,55.402,30.902,61.05006105
988.736,55.436,30.936,61.05006105
988.936,55.47,30.97,61.05006105
989.336,55.573,31.073,61.05006105
989.536,55.641,31.141,61.05006105
989.735,55.675,31.175,61.05006105
990.136,55.778,31.278,61.05006105
990.336,55.812,31.312,61.05006105
990.535,55.88,31.38,61.05006105
990.736,55.914,31.414,61.05006105
991.135,55.983,31.483,61.05006105
991.336,56.017,31.517,61.05006105
991.536,56.085,31.585,61.05006105
991.936,56.187,31.687,61.05006105
992.136,56.221,31.721,61.05006105
992.335,56.256,31.756,61.05006105
992.536,56.324,31.824,61.05006105
992.935,56.392,31.892,61.05006105
993.135,56.426,31.926,61.05006105
993.336,56.495,31.995,61.05006105
993.735,56.597,32.097,61.05006105
993.936,56.631,32.131,61.05006105
994.136,56.665,32.165,61.05006105
994.536,56.734,32.234,61.05006105
994.736,56.802,32.302,61.05006105
994.935,56.836,32.336,61.05006105
995.136,56.87,32.37,61.05006105
995.336,56.938,32.438,61.05006105
995.736,57.007,32.507,61.05006105
995.936,57.041,32.541,61.05006105
996.135,57.075,32.575,61.05006105
996.536,57.178,32.678,61.05006105
996.736,57.246,32.746,61.05006105
996.935,57.28,32.78,61.05006105
997.336,57.348,32.848,61.05006105
997.535,57.383,32.883,61.05006105
997.736,57.451,32.951,61.05006105
997.936,57.451,32.951,61.05006105
998.336,57.553,33.053,61.05006105
998.536,57.622,33.122,61.05006105
998.735,57.656,33.156,61.05006105
998.936,57.69,33.19,61.05006105
999.335,57.792,33.292,61.05006105
999.535,57.827,33.327,61.05006105
999.736,57.861,33.361,61.05006105
1000.135,57.929,33.429,61.05006105
1000.336,57.963,33.463,61.05006105
1000.536,58.031,33.531,61.05006105
1000.735,58.066,33.566,61.05006105
1001.136,58.134,33.634,61.05006105
1001.335,58.168,33.668,61.05006105
1001.536,58.236,33.736,61.05006105
1001.935,58.339,33.839,61.05006105
1002.136,58.339,33.839,61.05006105
1002.336,58.373,33.873,61.05006105
1002.535,58.442,33.942,61.05006105
1002.936,58.544,34.044,61.05006105
1003.136,58.544,34.044,61.05006105
1003.335,58.578,34.078,61.05006105
1003.536,58.612,34.112,61.05006105
1003.935,58.715,34.215,61.05006105
1004.136,58.749,34.249,61.05006105
1004.336,58.783,34.283,61.05006105
1004.736,58.886,34.386,61.05006105
1004.936,58.92,34.42,61.05006105
1005.135,58.954,34.454,61.05006105
1005.536,59.022,34.522,61.05006105
1005.735,59.091,34.591,61.05006105
1005.935,59.125,34.625,61.05006105
1006.136,59.125,34.625,61.05006105
1006.535,59.227,34.727,61.05006105
1006.736,59.262,34.762,61.05006105
1006.936,59.296,34.796,61.05006105
1007.336,59.364,34.864,61.05006105
1007.536,59.398,34.898,61.05006105
1007.735,59.467,34.967,61.05006105
1007.936,59.467,34.967,61.05006105
1008.335,59.569,35.069,61.05006105
1008.536,59.603,35.103,61.05006105
1008.736,59.638,35.138,61.05006105
1008.935,59.638,35.138,61.05006105
1009.336,59.74,35.24,61.05006105
1009.536,59.774,35.274,61.05006105
1009.735,59.808,35.308,61.05006105
1010.136,59.877,35.377,61.05006105
1010.335,59.911,35.411,61.05006105
1010.536,59.945,35.445,61.05006105
1010.736,60.013,35.513,61.05006105
1011.136,60.048,35.548,61.05006105
1011.336,60.116,35.616,61.05006105
1011.535,60.116,35.616,61.05006105
1011.936,60.219,35.719,61.05006105
1012.135,60.219,35.719,61.05006105
1012.335,60.287,35.787,61.05006105
1012.736,60.355,35.855,61.05006105
1012.935,60.355,35.855,61.05006105
1013.136,60.424,35.924,61.05006105
1013.535,60.492,35.992,61.05006105
1013.736,60.526,36.026,61.05006105
1013.936,60.56,36.06,61.05006105
1014.135,60.595,36.095,61.05006105
1014.536,60.663,36.163,61.05006105
1014.735,60.697,36.197,61.05006105
1014.936,60.732,36.232,61.05006105
1015.335,60.8,36.3,61.05006105
1015.535,60.834,36.334,61.05006105
1015.736,60.868,36.368,61.05006105
1015.936,60.902,36.402,61.05006105
1016.336,60.937,36.437,61.05006105
1016.536,61.005,36.505,61.05006105
1016.735,61.005,36.505,61.05006105
1017.136,61.073,36.573,61.05006105
1017.335,61.142,36.642,61.05006105
1017.536,61.142,36.642,61.05006105
1017.736,61.21,36.71,61.05006105
1018.136,61.279,36.779,61.05006105
1018.336,61.279,36.779,61.05006105
1018.535,61.313,36.813,61.05006105
1018.735,61.347,36.847,61.05006105
1019.136,61.415,36.915,61.05006105
1019.335,61.45,36.95,61.05006105
1019.536,61.484,36.984,61.05006105
1019.736,61.518,37.018,61.05006105
1020.136,61.552,37.052,61.05006105
1020.336,61.62,37.12,61.05006105
1020.535,61.655,37.155,61.05006105
1020.736,61.655,37.155,61.05006105
1021.135,61.723,37.223,61.05006105
1021.336,61.757,37.257,61.05006105
1021.536,61.757,37.257,61.05006105
1021.935,61.826,37.326,61.05006105
1022.136,61.86,37.36,61.05006105
1022.336,61.894,37.394,61.05006105
1022.535,61.928,37.428,61.05006105
1022.936,61.997,37.497,61.05006105
1023.135,62.031,37.531,61.05006105
1023.336,61.826,37.326,61.05006105
1023.735,62.065,37.565,61.05006105
1023.936,62.099,37.599,61.05006105
1024.136,62.134,37.634,61.05006105
1024.335,62.168,37.668,61.05006105
1024.736,62.202,37.702,61.05006105
1024.935,62.27,37.77,61.05006105
1025.135,62.304,37.804,61.05006105
1025.536,62.304,37.804,61.05006105
1025.735,62.339,37.839,61.05006105
1025.936,62.373,37.873,61.05006105
1026.136,62.373,37.873,61.05006105
1026.536,62.476,37.976,61.05006105
1026.736,62.476,37.976,61.05006105
1026.935,62.51,38.01,61.05006105
1027.136,62.544,38.044,61.05006105
1027.535,62.578,38.078,61.05006105
1027.736,62.578,38.078,61.05006105
1027.936,62.612,38.112,61.05006105
1028.335,62.681,38.181,61.05006105
1028.536,62.681,38.181,61.05006105
1028.736,62.749,38.249,61.05006105
1028.935,62.749,38.249,61.05006105
1029.336,62.818,38.318,61.05006105
1029.535,62.852,38.352,61.05006105
1029.736,62.852,38.352,61.05006105
1030.135,62.886,38.386,61.05006105
1030.336,62.92,38.42,61.05006105
1030.536,62.955,38.455,61.05006105
1030.735,62.955,38.455,61.05006105
1031.136,63.023,38.523,61.05006105
1031.335,63.057,38.557,61.05006105
1031.535,63.091,38.591,61.05006105
1031.736,63.126,38.626,61.05006105
1032.135,63.16,38.66,61.05006105
1032.336,63.194,38.694,61.05006105
1032.536,63.194,38.694,61.05006105
1032.936,63.262,38.762,61.05006105
1033.136,63.262,38.762,61.05006105
1033.335,63.297,38.797,61.05006105
1033.536,63.331,38.831,61.05006105
1033.935,63.365,38.865,61.05006105
1034.136,63.399,38.899,61.05006105
1034.336,63.434,38.934,61.05006105
1034.535,63.434,38.934,61.05006105
1034.936,63.502,39.002,61.05006105
1035.136,63.536,39.036,61.05006105
1035.335,63.536,39.036,61.05006105
1035.536,63.57,39.07,61.05006105
1035.935,63.639,39.139,61.05006105
1036.136,63.639,39.139,61.05006105
