Time (s),Temperature (C),Temperature Error (C),DAC Voltage (%)
2416.668,-14.223,-4.223,100
2416.868,-14.256,-4.256,100
2417.268,-14.223,-4.223,100
2417.468,-14.189,-4.189,100
2417.668,-14.156,-4.156,100
2417.868,-14.089,-4.089,100
2418.268,-13.955,-3.955,100
2418.468,-13.821,-3.821,100
2418.668,-13.721,-3.721,100
2418.868,-13.587,-3.587,100
2419.268,-13.286,-3.286,100
2419.468,-13.153,-3.153,100
2419.668,-12.952,-2.952,100
2419.868,-12.751,-2.751,100
2420.268,-12.35,-2.35,97.8998779
2420.468,-12.149,-2.149,89.54822955
2420.668,-11.948,-1.948,81.17216117
2420.868,-11.714,-1.714,71.42857143
2421.268,-11.246,-1.246,51.89255189
2421.468,-11.045,-1.045,43.54090354
2421.668,-10.777,-0.777,32.38095238
2421.868,-10.543,-0.543,22.61294261
2422.068,-10.275,-0.275,11.45299145
2422.468,-9.807,0.193,-8.058608059
2422.668,-9.572,0.428,-17.8021978
2422.868,-9.338,0.662,-27.57020757
2423.268,-8.903,1.097,-45.71428571
2423.468,-8.668,1.332,-55.48229548
2423.668,-8.467,1.533,-63.85836386
2423.868,-8.3,1.7,-70.84249084
2424.068,-8.099,1.901,-79.19413919
2424.468,-7.764,2.236,-93.16239316
2424.668,-7.63,2.37,-98.75457875
2424.868,-7.462,2.538,-100
2425.068,-7.328,2.672,-100
2425.468,-7.094,2.906,-100
2425.668,-6.993,3.007,-100
2425.868,-6.893,3.107,-100
2426.068,-6.792,3.208,-100
2426.468,-6.625,3.375,-100
2426.668,-6.558,3.442,-100
2426.868,-6.524,3.476,-100
2427.268,-6.39,3.61,-100
2427.468,-6.323,3.677,-100
2427.668,-6.29,3.71,-100
2427.868,-6.256,3.744,-100
2428.068,-6.223,3.777,-100
2428.468,-6.155,3.845,-100
2428.668,-6.122,3.878,-100
2428.868,-6.088,3.912,-100
2429.068,-6.088,3.912,-100
2429.468,-6.055,3.945,-100
2429.668,-6.021,3.979,-100
2429.868,-6.021,3.979,-100
2430.068,-5.988,4.012,-100
2430.468,-5.988,4.012,-100
2430.668,-5.954,4.046,-100
2430.868,-5.988,4.012,-100
2431.068,-5.988,4.012,-100
2431.468,-5.988,4.012,-100
2431.668,-5.988,4.012,-100
2431.868,-5.988,4.012,-100
2432.068,-5.988,4.012,-100
2432.468,-5.988,4.012,-100
2432.668,-5.988,4.012,-100
2432.868,-5.988,4.012,-100
2433.068,-6.021,3.979,-100
2433.468,-6.055,3.945,-100
2433.668,-6.055,3.945,-100
2433.868,-6.055,3.945,-100
2434.068,-6.055,3.945,-100
2434.468,-6.088,3.912,-100
2434.668,-6.088,3.912,-100
2434.868,-6.122,3.878,-100
2435.068,-6.155,3.845,-100
2435.468,-6.155,3.845,-100
2435.668,-6.189,3.811,-100
2435.868,-6.223,3.777,-100
2436.068,-6.223,3.777,-100
2436.468,-6.256,3.744,-100
2436.668,-6.256,3.744,-100
2436.868,-6.29,3.71,-100
2437.068,-6.323,3.677,-100
2437.468,-6.323,3.677,-100
2437.668,-6.323,3.677,-100
2437.868,-6.39,3.61,-100
2438.068,-6.39,3.61,-100
2438.468,-6.424,3.576,-100
2438.668,-6.424,3.576,-100
2438.868,-6.457,3.543,-100
2439.068,-6.491,3.509,-100
2439.468,-6.524,3.476,-100
2439.668,-6.558,3.442,-100
2439.868,-6.591,3.409,-100
2440.068,-6.591,3.409,-100
2440.468,-6.625,3.375,-100
2440.668,-6.625,3.375,-100
2440.868,-6.692,3.308,-100
2441.068,-6.692,3.308,-100
2441.468,-6.725,3.275,-100
2441.668,-6.759,3.241,-100
2441.868,-6.759,3.241,-100
2442.068,-6.792,3.208,-100
2442.468,-6.859,3.141,-100
2442.668,-6.859,3.141,-100
2442.868,-6.893,3.107,-100
2443.068,-6.926,3.074,-100
2443.468,-6.96,3.04,-100
2443.668,-6.96,3.04,-100
2443.868,-6.993,3.007,-100
2444.068,-7.027,2.973,-100
2444.468,-7.06,2.94,-100
2444.668,-7.06,2.94,-100
2444.868,-7.094,2.906,-100
2445.068,-7.094,2.906,-100
2445.468,-7.161,2.839,-100
2445.668,-7.194,2.806,-100
2445.868,-7.228,2.772,-100
2446.068,-7.228,2.772,-100
2446.468,-7.261,2.739,-100
2446.668,-7.261,2.739,-100
2446.868,-7.295,2.705,-100
2447.068,-7.328,2.672,-100
2447.468,-7.362,2.638,-100
2447.668,-7.362,2.638,-100
2447.868,-7.395,2.605,-100
2448.068,-7.429,2.571,-100
2448.468,-7.462,2.538,-100
2448.668,-7.462,2.538,-100
2448.868,-7.496,2.504,-100
2449.068,-7.529,2.471,-100
2449.468,-7.563,2.437,-100
2449.668,-7.563,2.437,-100
2449.868,-7.596,2.404,-100
2450.068,-7.63,2.37,-98.75457875
2450.468,-7.663,2.337,-97.33821734
2450.668,-7.697,2.303,-95.94627595
2450.868,-7.697,2.303,-95.94627595
2451.068,-7.73,2.27,-94.55433455
2451.468,-7.764,2.236,-93.16239316
2451.668,-7.797,2.203,-91.77045177
2451.868,-7.831,2.169,-90.37851038
2452.068,-7.831,2.169,-90.37851038
2452.468,-7.864,2.136,-88.98656899
2452.668,-7.898,2.102,-87.57020757
2452.868,-7.898,2.102,-87.57020757
2453.068,-7.931,2.069,-86.17826618
2453.468,-7.965,2.035,-84.78632479
2453.668,-7.965,2.035,-84.78632479
2453.868,-7.998,2.002,-83.39438339
2454.068,-7.998,2.002,-83.39438339
2454.468,-8.065,1.935,-80.61050061
2454.668,-8.065,1.935,-80.61050061
2454.868,-8.065,1.935,-80.61050061
2455.068,-8.065,1.935,-80.61050061
2455.468,-8.099,1.901,-79.19413919
2455.668,-8.099,1.901,-79.19413919
2455.868,-8.166,1.834,-76.41025641
2456.068,-8.132,1.868,-77.8021978
2456.468,-8.166,1.834,-76.41025641
2456.668,-8.166,1.834,-76.41025641
2456.868,-8.166,1.834,-76.41025641
2457.068,-8.199,1.801,-75.01831502
2457.468,-8.199,1.801,-75.01831502
2457.668,-8.199,1.801,-75.01831502
2457.868,-8.233,1.767,-73.62637363
2458.068,-8.233,1.767,-73.62637363
2458.468,-8.233,1.767,-73.62637363
2458.668,-8.233,1.767,-73.62637363
2458.868,-8.266,1.734,-72.23443223
2459.068,-8.266,1.734,-72.23443223
2459.468,-8.266,1.734,-72.23443223
2459.668,-8.266,1.734,-72.23443223
2459.868,-8.266,1.734,-72.23443223
2460.068,-8.266,1.734,-72.23443223
2460.468,-8.266,1.734,-72.23443223
2460.668,-8.3,1.7,-70.84249084
2460.868,-8.266,1.734,-72.23443223
2461.068,-8.266,1.734,-72.23443223
2461.468,-8.266,1.734,-72.23443223
2461.668,-8.266,1.734,-72.23443223
2461.868,-8.266,1.734,-72.23443223
2462.068,-8.3,1.7,-70.84249084
2462.268,-8.266,1.734,-72.23443223
2462.668,-8.3,1.7,-70.84249084
2462.868,-8.266,1.734,-72.23443223
2463.068,-8.3,1.7,-70.84249084
2463.268,-8.3,1.7,-70.84249084
2463.668,-8.3,1.7,-70.84249084
2463.868,-8.3,1.7,-70.84249084
2464.068,-8.3,1.7,-70.84249084
2464.268,-8.3,1.7,-70.84249084
2464.668,-8.3,1.7,-70.84249084
2464.868,-8.266,1.734,-72.23443223
2465.068,-8.266,1.734,-72.23443223
2465.268,-8.266,1.734,-72.23443223
2465.668,-8.266,1.734,-72.23443223
2465.868,-8.266,1.734,-72.23443223
2466.068,-8.233,1.767,-73.62637363
2466.268,-8.266,1.734,-72.23443223
2466.668,-8.266,1.734,-72.23443223
2466.868,-8.266,1.734,-72.23443223
2467.068,-8.266,1.734,-72.23443223
2467.268,-8.266,1.734,-72.23443223
2467.668,-8.233,1.767,-73.62637363
2467.868,-8.266,1.734,-72.23443223
2468.068,-8.266,1.734,-72.23443223
2468.468,-8.233,1.767,-73.62637363
2468.668,-8.233,1.767,-73.62637363
2468.868,-8.266,1.734,-72.23443223
2469.068,-8.233,1.767,-73.62637363
2469.268,-8.233,1.767,-73.62637363
2469.668,-8.233,1.767,-73.62637363
2469.868,-8.233,1.767,-73.62637363
2470.068,-8.233,1.767,-73.62637363
2470.268,-8.233,1.767,-73.62637363
2470.668,-8.233,1.767,-73.62637363
2470.868,-8.233,1.767,-73.62637363
2471.068,-8.233,1.767,-73.62637363
2471.268,-8.233,1.767,-73.62637363
2471.668,-8.233,1.767,-73.62637363
2471.868,-8.233,1.767,-73.62637363
2472.068,-8.233,1.767,-73.62637363
2472.268,-8.233,1.767,-73.62637363
2472.668,-8.233,1.767,-73.62637363
2472.868,-8.233,1.767,-73.62637363
2473.068,-8.233,1.767,-73.62637363
2473.268,-8.199,1.801,-75.01831502
2473.668,-8.199,1.801,-75.01831502
2473.868,-8.233,1.767,-73.62637363
2474.068,-8.233,1.767,-73.62637363
2474.268,-8.233,1.767,-73.62637363
2474.668,-8.233,1.767,-73.62637363
2474.868,-8.233,1.767,-73.62637363
2475.068,-8.233,1.767,-73.62637363
2475.268,-8.233,1.767,-73.62637363
2475.668,-8.199,1.801,-75.01831502
2475.868,-8.233,1.767,-73.62637363
2476.068,-8.199,1.801,-75.01831502
2476.268,-8.199,1.801,-75.01831502
2476.668,-8.233,1.767,-73.62637363
2476.868,-8.233,1.767,-73.62637363
2477.068,-8.233,1.767,-73.62637363
2477.268,-8.199,1.801,-75.01831502
2477.668,-8.233,1.767,-73.62637363
2477.868,-8.233,1.767,-73.62637363
2478.068,-8.199,1.801,-75.01831502
2478.268,-8.199,1.801,-75.01831502
2478.668,-8.233,1.767,-73.62637363
2478.868,-8.199,1.801,-75.01831502
2479.068,-8.199,1.801,-75.01831502
2479.268,-8.233,1.767,-73.62637363
2479.668,-8.233,1.767,-73.62637363
2479.868,-8.233,1.767,-73.62637363
2480.068,-8.199,1.801,-75.01831502
2480.268,-8.233,1.767,-73.62637363
2480.668,-8.233,1.767,-73.62637363
2480.868,-8.233,1.767,-73.62637363
2481.068,-8.233,1.767,-73.62637363
2481.268,-8.233,1.767,-73.62637363
2481.668,-8.233,1.767,-73.62637363
2481.868,-8.199,1.801,-75.01831502
2482.068,-8.233,1.767,-73.62637363
2482.268,-8.233,1.767,-73.62637363
2482.668,-8.233,1.767,-73.62637363
2482.868,-8.233,1.767,-73.62637363
2483.068,-8.233,1.767,-73.62637363
2483.268,-8.233,1.767,-73.62637363
2483.668,-8.233,1.767,-73.62637363
2483.868,-8.233,1.767,-73.62637363
2484.068,-8.233,1.767,-73.62637363
2484.268,-8.266,1.734,-72.23443223
2484.668,-8.233,1.767,-73.62637363
2484.868,-8.233,1.767,-73.62637363
2485.068,-8.233,1.767,-73.62637363
2485.268,-8.233,1.767,-73.62637363
2485.668,-8.233,1.767,-73.62637363
2485.868,-8.233,1.767,-73.62637363
2486.068,-8.233,1.767,-73.62637363
2486.268,-8.233,1.767,-73.62637363
2486.668,-8.233,1.767,-73.62637363
2486.868,-8.233,1.767,-73.62637363
2487.068,-8.233,1.767,-73.62637363
2487.268,-8.233,1.767,-73.62637363
2487.668,-8.233,1.767,-73.62637363
2487.868,-8.233,1.767,-73.62637363
2488.068,-8.233,1.767,-73.62637363
2488.268,-8.266,1.734,-72.23443223
2488.668,-8.233,1.767,-73.62637363
2488.868,-8.233,1.767,-73.62637363
2489.068,-8.233,1.767,-73.62637363
2489.268,-8.266,1.734,-72.23443223
2489.668,-8.266,1.734,-72.23443223
2489.868,-8.266,1.734,-72.23443223
2490.068,-8.233,1.767,-73.62637363
2490.268,-8.233,1.767,-73.62637363
2490.668,-8.233,1.767,-73.62637363
2490.868,-8.233,1.767,-73.62637363
2491.068,-8.233,1.767,-73.62637363
2491.268,-8.266,1.734,-72.23443223
2491.668,-8.233,1.767,-73.62637363
2491.868,-8.266,1.734,-72.23443223
2492.068,-8.266,1.734,-72.23443223
2492.268,-8.233,1.767,-73.62637363
2492.668,-8.233,1.767,-73.62637363
2492.868,-8.266,1.734,-72.23443223
2493.068,-8.233,1.767,-73.62637363
2493.268,-8.266,1.734,-72.23443223
2493.668,-8.266,1.734,-72.23443223
2493.868,-8.266,1.734,-72.23443223
2494.068,-8.266,1.734,-72.23443223
2494.268,-8.266,1.734,-72.23443223
2494.668,-8.266,1.734,-72.23443223
2494.868,-8.266,1.734,-72.23443223
2495.068,-8.266,1.734,-72.23443223
2495.268,-8.266,1.734,-72.23443223
2495.668,-8.266,1.734,-72.23443223
2495.868,-8.233,1.767,-73.62637363
2496.068,-8.266,1.734,-72.23443223
2496.268,-8.233,1.767,-73.62637363
2496.668,-8.266,1.734,-72.23443223
2496.868,-8.266,1.734,-72.23443223
2497.068,-8.233,1.767,-73.62637363
2497.268,-8.266,1.734,-72.23443223
2497.668,-8.233,1.767,-73.62637363
2497.868,-8.233,1.767,-73.62637363
2498.068,-8.233,1.767,-73.62637363
2498.268,-8.266,1.734,-72.23443223
2498.668,-8.233,1.767,-73.62637363
2498.868,-8.233,1.767,-73.62637363
2499.068,-8.233,1.767,-73.62637363
2499.268,-8.233,1.767,-73.62637363
2499.668,-8.233,1.767,-73.62637363
2499.868,-8.233,1.767,-73.62637363
2500.068,-8.266,1.734,-72.23443223
2500.268,-8.233,1.767,-73.62637363
2500.668,-8.266,1.734,-72.23443223
2500.868,-8.233,1.767,-73.62637363
2501.068,-8.233,1.767,-73.62637363
2501.268,-8.233,1.767,-73.62637363
2501.468,-8.233,1.767,-73.62637363
2501.868,-8.233,1.767,-73.62637363
2502.068,-8.266,1.734,-72.23443223
2502.268,-8.266,1.734,-72.23443223
2502.668,-8.266,1.734,-72.23443223
2502.868,-8.266,1.734,-72.23443223
2503.068,-8.266,1.734,-72.23443223
2503.268,-8.266,1.734,-72.23443223
2503.668,-8.266,1.734,-72.23443223
2503.868,-8.266,1.734,-72.23443223
2504.068,-8.266,1.734,-72.23443223
2504.268,-8.266,1.734,-72.23443223
2504.468,-8.266,1.734,-72.23443223
2504.868,-8.233,1.767,-73.62637363
2505.068,-8.233,1.767,-73.62637363
2505.268,-8.233,1.767,-73.62637363
2505.468,-8.266,1.734,-72.23443223
2505.868,-8.233,1.767,-73.62637363
2506.068,-8.266,1.734,-72.23443223
2506.268,-8.266,1.734,-72.23443223
2506.468,-8.266,1.734,-72.23443223
2506.868,-8.233,1.767,-73.62637363
2507.068,-8.233,1.767,-73.62637363
2507.268,-8.266,1.734,-72.23443223
2507.668,-8.266,1.734,-72.23443223
2507.868,-8.233,1.767,-73.62637363
2508.068,-8.266,1.734,-72.23443223
2508.268,-8.266,1.734,-72.23443223
2508.668,-8.266,1.734,-72.23443223
2508.868,-8.266,1.734,-72.23443223
2509.068,-8.266,1.734,-72.23443223
2509.268,-8.266,1.734,-72.23443223
2509.668,-8.266,1.734,-72.23443223
2509.868,-8.266,1.734,-72.23443223
2510.068,-8.266,1.734,-72.23443223
2510.268,-8.233,1.767,-73.62637363
2510.668,-8.266,1.734,-72.23443223
2510.868,-8.266,1.734,-72.23443223
2511.068,-8.266,1.734,-72.23443223
2511.268,-8.266,1.734,-72.23443223
2511.668,-8.266,1.734,-72.23443223
2511.868,-8.266,1.734,-72.23443223
2512.068,-8.266,1.734,-72.23443223
2512.268,-8.266,1.734,-72.23443223
2512.668,-8.266,1.734,-72.23443223
2512.868,-8.266,1.734,-72.23443223
2513.068,-8.266,1.734,-72.23443223
2513.268,-8.266,1.734,-72.23443223
2513.668,-8.233,1.767,-73.62637363
2513.868,-8.266,1.734,-72.23443223
2514.068,-8.233,1.767,-73.62637363
2514.268,-8.266,1.734,-72.23443223
2514.668,-8.233,1.767,-73.62637363
2514.868,-8.233,1.767,-73.62637363
2515.068,-8.266,1.734,-72.23443223
2515.268,-8.233,1.767,-73.62637363
2515.668,-8.266,1.734,-72.23443223
2515.868,-8.266,1.734,-72.23443223
2516.068,-8.266,1.734,-72.23443223
2516.268,-8.266,1.734,-72.23443223
2516.668,-8.233,1.767,-73.62637363
2516.868,-8.233,1.767,-73.62637363
2517.068,-8.266,1.734,-72.23443223
2517.268,-8.266,1.734,-72.23443223
2517.668,-8.266,1.734,-72.23443223
2517.868,-8.266,1.734,-72.23443223
2518.068,-8.266,1.734,-72.23443223
2518.268,-8.233,1.767,-73.62637363
2518.668,-8.233,1.767,-73.62637363
2518.868,-8.233,1.767,-73.62637363
2519.068,-8.233,1.767,-73.62637363
2519.268,-8.233,1.767,-73.62637363
2519.668,-8.233,1.767,-73.62637363
2519.868,-8.233,1.767,-73.62637363
2520.068,-8.233,1.767,-73.62637363
2520.268,-8.233,1.767,-73.62637363
2520.668,-8.233,1.767,-73.62637363
2520.868,-8.233,1.767,-73.62637363
2521.068,-8.233,1.767,-73.62637363
2521.268,-8.233,1.767,-73.62637363
2521.668,-8.233,1.767,-73.62637363
2521.868,-8.233,1.767,-73.62637363
2522.068,-8.233,1.767,-73.62637363
2522.268,-8.233,1.767,-73.62637363
2522.668,-8.233,1.767,-73.62637363
2522.868,-8.233,1.767,-73.62637363
2523.068,-8.233,1.767,-73.62637363
2523.268,-8.233,1.767,-73.62637363
2523.668,-8.233,1.767,-73.62637363
2523.868,-8.233,1.767,-73.62637363
2524.068,-8.233,1.767,-73.62637363
2524.268,-8.233,1.767,-73.62637363
2524.668,-8.233,1.767,-73.62637363
2524.868,-8.233,1.767,-73.62637363
2525.068,-8.266,1.734,-72.23443223
2525.268,-8.233,1.767,-73.62637363
2525.668,-8.233,1.767,-73.62637363
2525.868,-8.266,1.734,-72.23443223
2526.068,-8.233,1.767,-73.62637363
2526.268,-8.233,1.767,-73.62637363
2526.668,-8.266,1.734,-72.23443223
2526.868,-8.233,1.767,-73.62637363
2527.068,-8.233,1.767,-73.62637363
2527.268,-8.266,1.734,-72.23443223
2527.668,-8.233,1.767,-73.62637363
2527.868,-8.233,1.767,-73.62637363
2528.068,-8.233,1.767,-73.62637363
2528.268,-8.266,1.734,-72.23443223
2528.668,-8.266,1.734,-72.23443223
2528.868,-8.233,1.767,-73.62637363
2529.068,-8.233,1.767,-73.62637363
2529.268,-8.233,1.767,-73.62637363
2529.668,-8.266,1.734,-72.23443223
2529.868,-8.266,1.734,-72.23443223
2530.068,-8.266,1.734,-72.23443223
2530.268,-8.233,1.767,-73.62637363
2530.668,-8.266,1.734,-72.23443223
2530.868,-8.266,1.734,-72.23443223
2531.068,-8.266,1.734,-72.23443223
2531.268,-8.266,1.734,-72.23443223
2531.668,-8.266,1.734,-72.23443223
2531.868,-8.266,1.734,-72.23443223
2532.068,-8.233,1.767,-73.62637363
2532.268,-8.266,1.734,-72.23443223
2532.668,-8.233,1.767,-73.62637363
2532.868,-8.233,1.767,-73.62637363
2533.068,-8.233,1.767,-73.62637363
2533.268,-8.266,1.734,-72.23443223
2533.668,-8.233,1.767,-73.62637363
2533.868,-8.266,1.734,-72.23443223
2534.068,-8.266,1.734,-72.23443223
2534.268,-8.233,1.767,-73.62637363
2534.668,-8.266,1.734,-72.23443223
2534.868,-8.266,1.734,-72.23443223
2535.068,-8.266,1.734,-72.23443223
2535.268,-8.233,1.767,-73.62637363
2535.668,-8.266,1.734,-72.23443223
2535.868,-8.233,1.767,-73.62637363
2536.068,-8.266,1.734,-72.23443223
2536.268,-8.266,1.734,-72.23443223
2536.668,-8.266,1.734,-72.23443223
2536.868,-8.266,1.734,-72.23443223
2537.068,-8.266,1.734,-72.23443223
2537.268,-8.266,1.734,-72.23443223
2537.668,-8.266,1.734,-72.23443223
2537.868,-8.233,1.767,-73.62637363
2538.068,-8.233,1.767,-73.62637363
2538.268,-8.233,1.767,-73.62637363
2538.668,-8.266,1.734,-72.23443223
2538.868,-8.266,1.734,-72.23443223
2539.068,-8.266,1.734,-72.23443223
2539.268,-8.266,1.734,-72.23443223
2539.668,-8.266,1.734,-72.23443223
2539.868,-8.266,1.734,-72.23443223
2540.068,-8.266,1.734,-72.23443223
2540.268,-8.266,1.734,-72.23443223
2540.668,-8.266,1.734,-72.23443223
2540.868,-8.266,1.734,-72.23443223
2541.068,-8.266,1.734,-72.23443223
2541.268,-8.266,1.734,-72.23443223
2541.668,-8.266,1.734,-72.23443223
2541.868,-8.266,1.734,-72.23443223
2542.068,-8.266,1.734,-72.23443223
2542.268,-8.266,1.734,-72.23443223
2542.668,-8.266,1.734,-72.23443223
2542.868,-8.233,1.767,-73.62637363
2543.068,-8.266,1.734,-72.23443223
2543.268,-8.266,1.734,-72.23443223
2543.668,-8.266,1.734,-72.23443223
2543.868,-8.266,1.734,-72.23443223
2544.068,-8.266,1.734,-72.23443223
2544.268,-8.266,1.734,-72.23443223
2544.668,-8.266,1.734,-72.23443223
2544.868,-8.266,1.734,-72.23443223
2545.068,-8.266,1.734,-72.23443223
2545.268,-8.266,1.734,-72.23443223
2545.668,-8.266,1.734,-72.23443223
2545.868,-8.266,1.734,-72.23443223
2546.068,-8.266,1.734,-72.23443223
2546.268,-8.266,1.734,-72.23443223
2546.668,-8.266,1.734,-72.23443223
2546.868,-8.266,1.734,-72.23443223
2547.068,-8.266,1.734,-72.23443223
2547.468,-8.266,1.734,-72.23443223
2547.668,-8.233,1.767,-73.62637363
2547.868,-8.266,1.734,-72.23443223
2548.068,-8.266,1.734,-72.23443223
2548.468,-8.266,1.734,-72.23443223
2548.668,-8.266,1.734,-72.23443223
2548.868,-8.266,1.734,-72.23443223
2549.068,-8.266,1.734,-72.23443223
2549.468,-8.266,1.734,-72.23443223
2549.668,-8.266,1.734,-72.23443223
2549.868,-8.266,1.734,-72.23443223
2550.068,-8.266,1.734,-72.23443223
2550.468,-8.266,1.734,-72.23443223
2550.668,-8.266,1.734,-72.23443223
2550.868,-8.266,1.734,-72.23443223
2551.068,-8.266,1.734,-72.23443223
2551.468,-8.266,1.734,-72.23443223
2551.668,-8.3,1.7,-70.84249084
2551.868,-8.266,1.734,-72.23443223
2552.068,-8.266,1.734,-72.23443223
2552.468,-8.266,1.734,-72.23443223
2552.668,-8.3,1.7,-70.84249084
2552.868,-8.266,1.734,-72.23443223
2553.068,-8.266,1.734,-72.23443223
2553.468,-8.266,1.734,-72.23443223
2553.668,-8.3,1.7,-70.84249084
2553.868,-8.266,1.734,-72.23443223
2554.068,-8.266,1.734,-72.23443223
2554.468,-8.266,1.734,-72.23443223
2554.668,-8.266,1.734,-72.23443223
2554.868,-8.266,1.734,-72.23443223
2555.068,-8.3,1.7,-70.84249084
2555.468,-8.266,1.734,-72.23443223
2555.668,-8.266,1.734,-72.23443223
2555.868,-8.266,1.734,-72.23443223
2556.268,-8.266,1.734,-72.23443223
2556.668,-8.266,1.734,-72.23443223
2556.868,-8.266,1.734,-72.23443223
2557.068,-8.266,1.734,-72.23443223
2557.268,-8.266,1.734,-72.23443223
2557.668,-8.266,1.734,-72.23443223
2557.868,-8.266,1.734,-72.23443223
2558.068,-8.266,1.734,-72.23443223
2558.468,-8.266,1.734,-72.23443223
2558.668,-8.3,1.7,-70.84249084
2558.868,-8.3,1.7,-70.84249084
2559.068,-8.266,1.734,-72.23443223
2559.468,-8.266,1.734,-72.23443223
2559.668,-8.266,1.734,-72.23443223
2559.868,-8.266,1.734,-72.23443223
2560.068,-8.266,1.734,-72.23443223
2560.268,-8.266,1.734,-72.23443223
2560.668,-8.266,1.734,-72.23443223
2560.868,-8.266,1.734,-72.23443223
2561.068,-8.266,1.734,-72.23443223
2561.468,-8.3,1.7,-70.84249084
2561.668,-8.266,1.734,-72.23443223
2561.868,-8.266,1.734,-72.23443223
