Time (s),Temperature (C),Temperature Error (C),DAC Voltage (%)
1636.268,40.111,-9.889,100
1636.468,40.179,-9.821,100
1636.868,40.246,-9.754,100
1637.068,40.348,-9.652,100
1637.268,40.416,-9.584,100
1637.468,40.518,-9.482,100
1637.868,40.688,-9.312,100
1638.068,40.79,-9.21,100
1638.268,40.892,-9.108,100
1638.668,41.13,-8.87,100
1638.868,41.266,-8.734,100
1639.068,41.368,-8.632,100
1639.268,41.538,-8.462,100
1639.668,41.81,-8.19,100
1639.868,41.946,-8.054,100
1640.068,42.082,-7.918,100
1640.268,42.218,-7.782,100
1640.668,42.558,-7.442,100
1640.868,42.694,-7.306,100
1641.068,42.83,-7.17,100
1641.268,43,-7,100
1641.668,43.34,-6.66,100
1641.868,43.476,-6.524,100
1642.068,43.612,-6.388,100
1642.268,43.816,-6.184,100
1642.668,44.123,-5.877,100
1642.868,44.293,-5.707,100
1643.068,44.463,-5.537,100
1643.268,44.633,-5.367,100
1643.668,44.973,-5.027,100
1643.868,45.143,-4.857,100
1644.068,45.313,-4.687,100
1644.268,45.484,-4.516,100
1644.668,45.858,-4.142,100
1644.868,45.994,-4.006,100
1645.068,46.164,-3.836,100
1645.268,46.369,-3.631,100
1645.668,46.709,-3.291,100
1645.868,46.845,-3.155,100
1646.068,47.015,-2.985,100
1646.468,47.39,-2.61,100
1646.668,47.56,-2.44,100
1646.868,47.73,-2.27,95.7997558
1647.268,48.071,-1.929,83.80952381
1647.468,48.241,-1.759,77.7045177
1647.668,48.412,-1.588,71.45299145
1647.868,48.582,-1.418,65.15262515
1648.268,48.923,-1.077,52.23443223
1648.468,49.059,-0.941,47.05738706
1648.668,49.229,-0.771,40.39072039
1649.068,49.536,-0.464,28.20512821
1649.268,49.672,-0.328,22.71062271
1649.468,49.809,-0.191,17.14285714
1649.868,50.081,0.081,5.763125763
1650.068,50.15,0.15,2.832722833
1650.268,50.286,0.286,-2.979242979
1650.468,50.354,0.354,-6.007326007
1650.668,50.422,0.422,-9.084249084
1651.068,50.593,0.593,-16.8009768
1651.268,50.661,0.661,-20
1651.468,50.729,0.729,-23.24786325
1651.868,50.763,0.763,-25.49450549
1652.068,50.831,0.831,-28.79120879
1652.268,50.831,0.831,-29.25518926
1652.468,50.865,0.865,-31.15995116
1652.868,50.831,0.831,-30.67155067
1653.068,50.831,0.831,-31.11111111
1653.268,50.831,0.831,-31.57509158
1653.668,50.763,0.763,-29.5970696
1653.868,50.763,0.763,-30.01221001
1654.068,50.729,0.729,-28.98656899
1654.268,50.695,0.695,-27.96092796
1654.668,50.593,0.593,-24.3956044
1654.868,50.524,0.524,-21.83150183
1655.068,50.49,0.49,-20.68376068
1655.468,50.388,0.388,-16.87423687
1655.668,50.286,0.286,-12.77167277
1655.868,50.252,0.252,-11.47741148
1656.268,50.115,0.115,-5.958485958
1656.468,50.047,0.047,-3.15018315
1656.668,49.979,-0.021,-0.293040293
1656.868,49.911,-0.089,2.564102564
1657.268,49.775,-0.225,8.424908425
1657.468,49.74,-0.26,9.987789988
1657.668,49.672,-0.328,13.01587302
1657.868,49.604,-0.396,16.06837607
1658.268,49.468,-0.532,22.2954823
1658.468,49.4,-0.6,25.47008547
1658.668,49.332,-0.668,28.66910867
1659.068,49.229,-0.771,33.74847375
1659.268,49.161,-0.839,37.04517705
1659.468,49.127,-0.873,38.94993895
1659.868,49.025,-0.975,44.24908425
1660.068,48.991,-1.009,46.22710623
1660.268,48.957,-1.043,48.22954823
1660.468,48.923,-1.077,50.23199023
1660.868,48.889,-1.111,52.86935287
1661.068,48.82,-1.18,56.36141636
1661.268,48.82,-1.18,57.02075702
1661.668,48.82,-1.18,58.31501832
1661.868,48.786,-1.214,60.39072039
1662.068,48.786,-1.214,61.07448107
1662.268,48.82,-1.18,60.29304029
1662.668,48.82,-1.18,61.58730159
1662.868,48.82,-1.18,62.24664225
1663.068,48.82,-1.18,62.88156288
1663.468,48.889,-1.111,61.29426129
1663.668,48.889,-1.111,61.9047619
1663.868,48.923,-1.077,61.07448107
1664.068,48.923,-1.077,61.66056166
1664.468,49.025,-0.975,58.51037851
1664.668,49.059,-0.941,57.60683761
1664.868,49.093,-0.907,56.67887668
1665.268,49.161,-0.839,54.7985348
1665.468,49.195,-0.805,53.82173382
1665.668,49.263,-0.737,51.37973138
1665.868,49.297,-0.703,50.35409035
1666.268,49.366,-0.634,48.22954823
1666.468,49.434,-0.566,45.68986569
1666.668,49.468,-0.532,44.56654457
1666.868,49.502,-0.498,43.41880342
1667.268,49.604,-0.396,39.60927961
1667.468,49.638,-0.362,38.38827839
1667.668,49.672,-0.328,37.16727717
1668.068,49.74,-0.26,34.6031746
1668.268,49.775,-0.225,33.30891331
1668.468,49.809,-0.191,31.99023199
1668.868,49.877,-0.123,29.3040293
1669.068,49.911,-0.089,27.93650794
1669.268,49.945,-0.055,26.54456654
1669.668,49.979,-0.021,25.17704518
1669.868,49.979,-0.021,25.17704518
1670.068,50.013,0.013,23.73626374
1670.268,50.013,0.013,23.73626374
1670.668,50.047,0.047,22.27106227
1670.868,50.047,0.047,22.24664225
1671.068,50.081,0.081,20.78144078
1671.268,50.081,0.081,20.73260073
1671.668,50.081,0.081,20.65934066
1671.868,50.115,0.115,19.16971917
1672.068,50.115,0.115,19.0964591
1672.268,50.081,0.081,20.48840049
1672.668,50.081,0.081,20.39072039
1672.868,50.081,0.081,20.34188034
1673.068,50.081,0.081,20.29304029
1673.468,50.047,0.047,21.66056166
1673.668,50.047,0.047,21.63614164
1673.868,50.047,0.047,21.61172161
1674.268,50.013,0.013,23.003663
1674.468,50.013,0.013,22.97924298
1674.668,49.979,-0.021,24.42002442
1674.868,49.945,-0.055,25.88522589
1675.268,49.945,-0.055,25.93406593
1675.468,49.911,-0.089,27.3992674
1675.668,49.911,-0.089,27.44810745
1676.068,49.877,-0.123,28.98656899
1676.268,49.877,-0.123,29.05982906
1676.468,49.843,-0.157,30.57387057
1676.668,49.843,-0.157,30.64713065
1677.068,49.809,-0.191,32.28327228
1677.268,49.809,-0.191,32.38095238
1677.468,49.775,-0.225,33.91941392
1677.868,49.775,-0.225,34.18803419
1678.068,49.74,-0.26,35.75091575
1678.268,49.74,-0.26,35.87301587
1678.468,49.74,-0.26,36.01953602
1678.868,49.706,-0.294,37.77777778
1679.068,49.706,-0.294,37.92429792
1679.268,49.706,-0.294,38.0952381
1679.468,49.672,-0.328,39.68253968
1679.868,49.672,-0.328,40.02442002
1680.068,49.672,-0.328,40.21978022
1680.268,49.672,-0.328,40.39072039
1680.668,49.672,-0.328,40.75702076
1680.868,49.672,-0.328,40.92796093
1681.068,49.706,-0.294,39.68253968
1681.268,49.706,-0.294,39.82905983
1681.668,49.672,-0.328,41.58730159
1681.868,49.706,-0.294,40.34188034
1682.068,49.706,-0.294,40.51282051
1682.268,49.706,-0.294,40.65934066
1682.668,49.74,-0.26,39.53601954
1682.868,49.74,-0.26,39.68253968
1683.068,49.74,-0.26,39.82905983
1683.468,49.775,-0.225,38.68131868
1683.668,49.74,-0.26,40.24420024
1683.868,49.775,-0.225,38.94993895
1684.068,49.775,-0.225,39.07203907
1684.468,49.809,-0.191,37.85103785
1684.668,49.809,-0.191,37.97313797
1684.868,49.843,-0.157,36.63003663
1685.068,49.843,-0.157,36.72771673
1685.468,49.843,-0.157,36.8986569
1685.668,49.877,-0.123,35.53113553
1685.868,49.877,-0.123,35.6043956
1686.268,49.877,-0.123,35.75091575
1686.468,49.911,-0.089,34.38339438
1686.668,49.911,-0.089,34.43223443
1687.068,49.945,-0.055,33.06471306
1687.268,49.945,-0.055,33.08913309
1687.468,49.979,-0.021,31.6971917
1687.668,49.945,-0.055,33.13797314
1688.068,49.979,-0.021,31.74603175
1688.268,49.979,-0.021,31.74603175
1688.468,49.979,-0.021,31.77045177
1688.668,50.013,0.013,30.32967033
1689.068,50.013,0.013,30.32967033
1689.268,50.013,0.013,30.32967033
1689.468,50.013,0.013,30.30525031
1689.868,50.013,0.013,30.30525031
1690.068,50.013,0.013,30.30525031
1690.268,49.979,-0.021,31.74603175
1690.668,50.013,0.013,30.28083028
1690.868,49.979,-0.021,31.72161172
1691.068,50.013,0.013,30.30525031
1691.268,50.013,0.013,30.28083028
1691.668,50.013,0.013,30.28083028
1691.868,50.013,0.013,30.25641026
1692.068,49.979,-0.021,31.6971917
1692.268,50.013,0.013,30.28083028
1692.668,49.979,-0.021,31.6971917
1692.868,50.013,0.013,30.28083028
1693.068,50.013,0.013,30.25641026
1693.268,49.979,-0.021,31.6971917
1693.668,50.013,0.013,30.28083028
1693.868,49.979,-0.021,31.72161172
1694.068,49.979,-0.021,31.72161172
1694.468,49.979,-0.021,31.74603175
1694.668,49.979,-0.021,31.77045177
1694.868,49.979,-0.021,31.77045177
1695.268,49.979,-0.021,31.81929182
1695.468,49.945,-0.055,33.26007326
1695.668,49.945,-0.055,33.28449328
1696.068,49.945,-0.055,33.33333333
1696.268,49.945,-0.055,33.35775336
1696.468,49.945,-0.055,33.40659341
1696.668,49.911,-0.089,34.87179487
1697.068,49.911,-0.089,34.94505495
1697.268,49.911,-0.089,34.99389499
1697.468,49.911,-0.089,35.04273504
1697.868,49.945,-0.055,33.67521368
1698.068,49.945,-0.055,33.72405372
1698.268,49.945,-0.055,33.74847375
1698.468,49.911,-0.089,35.21367521
1698.868,49.945,-0.055,33.87057387
1699.068,49.945,-0.055,33.89499389
1699.268,49.911,-0.089,35.38461538
1699.468,49.911,-0.089,35.43345543
1699.868,49.945,-0.055,34.06593407
1700.068,49.945,-0.055,34.09035409
1700.268,49.911,-0.089,35.55555556
1700.668,49.911,-0.089,35.65323565
1700.868,49.911,-0.089,35.7020757
1701.068,49.945,-0.055,34.31013431
1701.268,49.945,-0.055,34.33455433
1701.668,49.979,-0.021,32.94261294
1701.868,49.911,-0.089,35.84859585
1702.068,49.911,-0.089,35.8974359
1702.268,49.945,-0.055,34.50549451
1702.668,49.911,-0.089,35.995116
1702.868,49.945,-0.055,34.6031746
1703.068,49.945,-0.055,34.65201465
1703.268,49.945,-0.055,34.67643468
1703.668,49.945,-0.055,34.72527473
1703.868,49.945,-0.055,34.77411477
1704.068,49.979,-0.021,33.35775336
1704.268,49.979,-0.021,33.35775336
1704.668,49.945,-0.055,34.82295482
1704.868,49.945,-0.055,34.84737485
1705.068,49.945,-0.055,34.8962149
1705.468,49.945,-0.055,34.92063492
1705.668,49.979,-0.021,33.52869353
1705.868,49.979,-0.021,33.52869353
1706.068,49.979,-0.021,33.55311355
1706.468,49.979,-0.021,33.57753358
1706.668,50.013,0.013,32.13675214
1706.868,49.979,-0.021,33.57753358
1707.068,49.979,-0.021,33.57753358
1707.468,49.979,-0.021,33.6019536
1707.668,50.013,0.013,32.16117216
1707.868,50.013,0.013,32.16117216
1708.268,50.013,0.013,32.16117216
1708.468,50.013,0.013,32.13675214
1708.668,50.013,0.013,32.13675214
1708.868,50.013,0.013,32.13675214
1709.268,50.013,0.013,32.11233211
1709.468,50.013,0.013,32.11233211
1709.668,50.013,0.013,32.08791209
1710.068,50.013,0.013,32.08791209
1710.268,50.013,0.013,32.08791209
1710.468,50.013,0.013,32.06349206
1710.668,50.013,0.013,32.06349206
1711.068,50.013,0.013,32.03907204
1711.268,50.013,0.013,32.03907204
1711.468,50.013,0.013,32.03907204
1711.668,50.013,0.013,32.03907204
1712.068,50.013,0.013,32.01465201
1712.268,49.979,-0.021,33.45543346
1712.468,49.979,-0.021,33.45543346
1712.868,50.013,0.013,32.01465201
1713.068,49.979,-0.021,33.45543346
1713.268,49.979,-0.021,33.47985348
1713.468,49.979,-0.021,33.47985348
1713.868,49.979,-0.021,33.47985348
1714.068,50.013,0.013,32.06349206
1714.268,50.013,0.013,32.03907204
1714.468,49.979,-0.021,33.47985348
1714.868,49.979,-0.021,33.47985348
1715.068,50.013,0.013,32.06349206
1715.268,49.979,-0.021,33.5042735
1715.668,49.979,-0.021,33.52869353
1715.868,49.979,-0.021,33.52869353
1716.068,49.979,-0.021,33.52869353
1716.268,49.979,-0.021,33.55311355
1716.668,50.013,0.013,32.13675214
1716.868,49.979,-0.021,33.57753358
1717.068,49.979,-0.021,33.57753358
1717.468,49.979,-0.021,33.6019536
1717.668,49.979,-0.021,33.6019536
1717.868,49.979,-0.021,33.62637363
1718.068,49.979,-0.021,33.62637363
1718.468,49.979,-0.021,33.65079365
1718.668,49.979,-0.021,33.67521368
1718.868,49.979,-0.021,33.67521368
1719.068,50.013,0.013,32.25885226
1719.468,49.979,-0.021,33.6996337
1719.668,49.979,-0.021,33.6996337
1719.868,49.979,-0.021,33.72405372
1720.068,49.979,-0.021,33.72405372
1720.468,49.979,-0.021,33.74847375
1720.668,49.979,-0.021,33.77289377
1720.868,49.979,-0.021,33.77289377
1721.268,50.013,0.013,32.35653236
1721.468,49.979,-0.021,33.7973138
1721.668,49.979,-0.021,33.7973138
1721.868,49.979,-0.021,33.82173382
1722.268,49.979,-0.021,33.84615385
1722.468,50.013,0.013,32.40537241
1722.668,50.013,0.013,32.40537241
1723.068,49.979,-0.021,33.84615385
1723.268,49.979,-0.021,33.87057387
1723.468,49.979,-0.021,33.87057387
1723.668,49.979,-0.021,33.89499389
1724.068,50.013,0.013,32.45421245
1724.268,50.013,0.013,32.45421245
1724.468,49.979,-0.021,33.89499389
1724.668,50.013,0.013,32.45421245
1725.068,50.013,0.013,32.45421245
1725.268,49.979,-0.021,33.89499389
1725.468,49.979,-0.021,33.91941392
1725.868,49.979,-0.021,33.94383394
1726.068,50.013,0.013,32.5030525
1726.268,49.979,-0.021,33.94383394
1726.468,49.979,-0.021,33.94383394
1726.868,49.979,-0.021,33.96825397
1727.068,49.979,-0.021,33.96825397
1727.268,49.979,-0.021,33.96825397
1727.468,49.979,-0.021,33.99267399
1727.868,50.013,0.013,32.55189255
1728.068,50.013,0.013,32.55189255
1728.268,50.013,0.013,32.52747253
1728.468,50.013,0.013,32.52747253
1728.868,50.013,0.013,32.5030525
1729.068,50.013,0.013,32.5030525
1729.268,50.013,0.013,32.5030525
1729.668,50.013,0.013,32.5030525
1729.868,50.013,0.013,32.5030525
1730.068,50.013,0.013,32.47863248
1730.268,50.013,0.013,32.47863248
1730.668,49.979,-0.021,33.91941392
1730.868,50.013,0.013,32.47863248
1731.068,50.013,0.013,32.47863248
1731.268,49.979,-0.021,33.91941392
1731.668,49.979,-0.021,33.94383394
1731.868,49.979,-0.021,33.94383394
1732.068,49.979,-0.021,33.96825397
1732.468,49.979,-0.021,33.96825397
1732.668,50.013,0.013,32.55189255
1732.868,49.979,-0.021,33.99267399
1733.068,49.979,-0.021,33.99267399
1733.468,50.013,0.013,32.55189255
1733.668,50.013,0.013,32.55189255
1733.868,50.013,0.013,32.52747253
1734.068,49.979,-0.021,33.96825397
1734.468,50.013,0.013,32.55189255
1734.668,50.013,0.013,32.55189255
1734.868,49.979,-0.021,33.99267399
1735.068,50.013,0.013,32.55189255
1735.268,49.979,-0.021,33.99267399
1735.668,50.013,0.013,32.57631258
1735.868,49.979,-0.021,34.01709402
1736.068,50.013,0.013,32.57631258
1736.268,50.013,0.013,32.57631258
1736.668,49.979,-0.021,33.99267399
1736.868,50.013,0.013,32.55189255
1737.068,50.013,0.013,32.55189255
1737.268,50.013,0.013,32.55189255
1737.668,50.013,0.013,32.52747253
1737.868,50.013,0.013,32.52747253
1738.068,50.013,0.013,32.52747253
1738.468,50.013,0.013,32.52747253
1738.668,50.013,0.013,32.5030525
1738.868,50.013,0.013,32.5030525
1739.268,49.979,-0.021,33.94383394
1739.468,49.979,-0.021,33.94383394
1739.668,50.013,0.013,32.52747253
1740.068,50.013,0.013,32.52747253
1740.268,50.013,0.013,32.5030525
1740.468,50.013,0.013,32.5030525
1740.668,50.013,0.013,32.5030525
1741.068,49.979,-0.021,33.91941392
1741.268,50.013,0.013,32.5030525
1741.468,50.013,0.013,32.47863248
1741.668,50.013,0.013,32.47863248
1742.068,50.013,0.013,32.47863248
1742.268,50.013,0.013,32.45421245
1742.468,50.013,0.013,32.45421245
1742.668,50.013,0.013,32.45421245
1743.068,50.013,0.013,32.45421245
1743.268,50.013,0.013,32.42979243
1743.468,50.013,0.013,32.42979243
1743.868,50.013,0.013,32.42979243
1744.068,50.013,0.013,32.40537241
1744.268,50.013,0.013,32.40537241
1744.468,50.013,0.013,32.40537241
1744.868,50.013,0.013,32.38095238
1745.068,50.013,0.013,32.38095238
1745.268,50.013,0.013,32.38095238
1745.468,50.013,0.013,32.35653236
1745.868,49.979,-0.021,33.7973138
1746.068,49.979,-0.021,33.7973138
1746.268,50.013,0.013,32.38095238
1746.668,50.013,0.013,32.35653236
1746.868,49.979,-0.021,33.7973138
1747.068,50.013,0.013,32.35653236
1747.268,50.013,0.013,32.35653236
1747.668,49.979,-0.021,33.77289377
1747.868,50.013,0.013,32.35653236
1748.068,50.013,0.013,32.33211233
1748.268,50.013,0.013,32.33211233
1748.668,49.979,-0.021,33.77289377
1748.868,50.013,0.013,32.33211233
1749.068,50.013,0.013,32.33211233
1749.268,50.013,0.013,32.30769231
1749.668,49.979,-0.021,33.77289377
1749.868,49.979,-0.021,33.77289377
1750.068,50.013,0.013,32.35653236
1750.468,49.979,-0.021,33.77289377
1750.668,49.979,-0.021,33.7973138
1750.868,49.979,-0.021,33.7973138
1751.068,49.979,-0.021,33.82173382
1751.468,49.979,-0.021,33.82173382
1751.668,50.013,0.013,32.38095238
1751.868,49.979,-0.021,33.82173382
1752.068,49.979,-0.021,33.82173382
1752.468,50.013,0.013,32.40537241
1752.668,49.979,-0.021,33.84615385
1752.868,50.013,0.013,32.40537241
1753.068,49.979,-0.021,33.84615385
1753.468,50.013,0.013,32.40537241
1753.668,50.013,0.013,32.40537241
1753.868,50.013,0.013,32.40537241
1754.268,49.979,-0.021,33.84615385
1754.468,50.013,0.013,32.40537241
1754.668,50.013,0.013,32.40537241
1754.868,50.013,0.013,32.40537241
1755.268,50.013,0.013,32.40537241
1755.468,50.013,0.013,32.40537241
1755.668,50.013,0.013,32.38095238
1755.868,49.979,-0.021,33.82173382
1756.268,50.047,0.047,30.96459096
1756.468,50.013,0.013,32.35653236
1756.668,50.013,0.013,32.35653236
1756.868,50.013,0.013,32.33211233
1757.268,50.013,0.013,32.33211233
1757.468,50.013,0.013,32.33211233
1757.668,50.013,0.013,32.30769231
1757.868,50.013,0.013,32.30769231
1758.268,50.013,0.013,32.28327228
1758.468,50.013,0.013,32.28327228
1758.668,50.013,0.013,32.28327228
1759.068,50.013,0.013,32.25885226
1759.268,50.013,0.013,32.25885226
1759.468,50.013,0.013,32.25885226
1759.668,50.013,0.013,32.23443223
1760.068,50.013,0.013,32.23443223
1760.268,50.013,0.013,32.21001221
1760.468,50.013,0.013,32.21001221
1760.668,49.979,-0.021,33.65079365
1761.068,50.013,0.013,32.21001221
1761.268,50.013,0.013,32.21001221
1761.468,50.013,0.013,32.18559219
1761.868,50.013,0.013,32.18559219
1762.068,49.979,-0.021,33.62637363
1762.268,49.979,-0.021,33.62637363
1762.668,50.013,0.013,32.18559219
1762.868,49.979,-0.021,33.62637363
1763.068,49.979,-0.021,33.65079365
1763.268,49.979,-0.021,33.65079365
1763.668,49.979,-0.021,33.65079365
1763.868,49.979,-0.021,33.67521368
1764.068,50.013,0.013,32.23443223
1764.268,49.979,-0.021,33.67521368
1764.668,49.979,-0.021,33.6996337
1764.868,49.979,-0.021,33.6996337
1765.068,50.013,0.013,32.25885226
1765.468,50.013,0.013,32.25885226
1765.668,50.013,0.013,32.25885226
1765.868,49.979,-0.021,33.6996337
1766.068,49.979,-0.021,33.6996337
1766.468,50.013,0.013,32.28327228
1766.668,50.013,0.013,32.25885226
1766.868,50.013,0.013,32.25885226
1767.268,49.979,-0.021,33.72405372
1767.469,49.979,-0.021,33.72405372
1767.668,50.013,0.013,32.28327228
1767.868,50.013,0.013,32.28327228
1768.268,50.013,0.013,32.28327228
1768.468,50.013,0.013,32.28327228
1768.668,50.013,0.013,32.28327228
1769.068,50.013,0.013,32.25885226
1769.268,50.013,0.013,32.25885226
1769.468,50.013,0.013,32.23443223
1769.868,49.979,-0.021,33.6996337
1770.068,50.013,0.013,32.25885226
1770.268,50.013,0.013,32.25885226
1770.468,50.013,0.013,32.23443223
1770.868,49.979,-0.021,33.6996337
1771.068,49.979,-0.021,33.6996337
1771.268,50.013,0.013,32.28327228
1771.668,50.013,0.013,32.25885226
1771.868,49.979,-0.021,33.6996337
1772.068,50.013,0.013,32.25885226
1772.268,49.979,-0.021,33.6996337
1772.668,50.013,0.013,32.25885226
1772.868,50.013,0.013,32.25885226
1773.068,49.979,-0.021,33.6996337
1773.268,50.013,0.013,32.25885226
1773.668,50.013,0.013,32.23443223
1773.868,49.979,-0.021,33.67521368
1774.068,50.013,0.013,32.23443223
1774.268,49.979,-0.021,33.67521368
1774.668,50.013,0.013,32.23443223
1774.868,50.013,0.013,32.23443223
1775.068,50.013,0.013,32.23443223
1775.268,50.013,0.013,32.21001221
1775.668,49.979,-0.021,33.65079365
1775.868,50.013,0.013,32.21001221
1776.068,50.013,0.013,32.21001221
1776.468,49.979,-0.021,33.65079365
1776.668,50.013,0.013,32.21001221
1776.868,50.013,0.013,32.21001221
1777.068,49.979,-0.021,33.65079365
1777.468,49.979,-0.021,33.65079365
1777.668,49.979,-0.021,33.67521368
1777.868,50.013,0.013,32.23443223
1778.068,50.013,0.013,32.23443223
1778.468,50.013,0.013,32.21001221
1778.668,49.979,-0.021,33.65079365
1778.868,49.979,-0.021,33.67521368
1779.268,49.979,-0.021,33.6996337
1779.468,50.013,0.013,32.25885226
1779.668,49.979,-0.021,33.6996337
1779.868,49.979,-0.021,33.6996337
1780.268,50.013,0.013,32.25885226
1780.468,50.013,0.013,32.25885226
1780.668,50.013,0.013,32.25885226
1780.868,50.013,0.013,32.23443223
1781.268,49.979,-0.021,33.67521368
1781.468,49.979,-0.021,33.67521368
1781.668,50.013,0.013,32.25885226
1781.868,50.013,0.013,32.23443223
